date,A,AAL,AAP,AAPL,ABBV,ABC,ABT,ACN,ADBE,ADI,ADM,ADP,ADS,ADSK,AEE,AEP,AES,AET,AFL,AGN,AIG,AIV,AIZ,AJG,AKAM,ALB,ALGN,ALK,ALL,ALXN,AMAT,AMD,AME,AMG,AMGN,AMP,AMT,AMZN,ANDV,ANSS,ANTM,AON,AOS,APA,APC,APD,APH,ARE,ARNC,ATVI,AVB,AVGO,AVY,AWK,AXP,AYI,AZO,BA,BAC,BAX,BBT,BBY,BDX,BEN,BF.B,BIIB,BK,BLK,BLL,BRK.B,BSX,BWA,BXP,C,CA,CAG,CAH,CAT,CB,CBG,CBOE,CBS,CCI,CCL,CDNS,CELG,CERN,CF,CHD,CHK,CHRW,CHTR,CI,CINF,CL,CLX,CMA,CMCSA,CME,CMG,CMI,CMS,CNC,CNP,COF,COG,COL,COO,COP,COST,CPB,CRM,CSCO,CSX,CTAS,CTL,CTSH,CTXS,CVS,CVX,CXO,D,DAL,DE,DFS,DG,DGX,DHI,DIS,DISCA,DISCK,DISH,DLR,DLTR,DOV,DPS,DRE,DRI,DTE,DUK,DVA,DVN,EA,EBAY,ECL,ED,EFX,EIX,EL,EMN,EMR,EOG,EQIX,EQR,EQT,ESRX,ESS,ETFC,ETN,ETR,EW,EXC,EXPD,EXPE,EXR,F,FAST,FB,FBHS,FCX,FDX,FE,FFIV,FIS,FISV,FITB,FL,FLIR,FLR,FLS,FMC,FRT,FTI,GD,GE,GGP,GILD,GIS,GLW,GM,GOOGL,GPC,GPN,GPS,GRMN,GS,GT,GWW,HAL,HAS,HBAN,HBI,HCA,HCN,HCP,HD,HES,HIG,HII,HOG,HOLX,HON,HP,HRB,HRL,HRS,HSIC,HST,HSY,HUM,IBM,IDXX,IFF,ILMN,INCY,INTC,INTU,IP,IPG,IR,IRM,ISRG,IT,ITW,IVZ,JBHT,JCI,JEC,JNJ,JNPR,JPM,JWN,K,KEY,KIM,KLAC,KMB,KMI,KMX,KO,KORS,KR,KSS,KSU,L,LB,LEG,LEN,LH,LKQ,LLL,LLY,LMT,LNC,LNT,LOW,LRCX,LUK,LUV,LYB,M,MA,MAA,MAC,MAR,MAS,MAT,MCD,MCHP,MCK,MCO,MDLZ,MDT,MET,MGM,MHK,MKC,MLM,MMC,MMM,MNST,MO,MON,MOS,MPC,MRK,MRO,MS,MSFT,MSI,MTB,MTD,MU,MYL,NBL,NCLH,NDAQ,NEE,NEM,NFLX,NFX,NI,NKE,NLSN,NOC,NOV,NRG,NSC,NTAP,NTRS,NUE,NVDA,NWL,OKE,OMC,ORLY,OXY,PAYX,PBCT,PCAR,PCG,PCLN,PDCO,PEG,PEP,PFE,PFG,PG,PGR,PH,PHM,PKG,PKI,PLD,PM,PNC,PNR,PNW,PPG,PPL,PRGO,PRU,PSA,PSX,PVH,PWR,PX,PXD,QCOM,RCL,RE,REG,REGN,RF,RHI,RHT,RJF,RL,RMD,ROK,ROP,ROST,RRC,RSG,RTN,SBAC,SBUX,SCG,SCHW,SEE,SHW,SIG,SJM,SLB,SLG,SNA,SNI,SNPS,SO,SPG,SPGI,SRCL,SRE,STI,STT,STX,STZ,SWK,SWKS,SYK,SYMC,SYY,T,TAP,TDG,TEL,TGT,TIF,TJX,TMK,TMO,TPR,TRIP,TROW,TRV,TSCO,TSN,TSS,TWX,TXN,TXT,UAA,UAL,UDR,UHS,ULTA,UNH,UNM,UNP,UPS,URI,USB,UTX,V,VAR,VFC,VIAB,VLO,VMC,VNO,VRSK,VRSN,VRTX,VTR,VZ,WAT,WBA,WDC,WEC,WFC,WHR,WM,WMB,WMT,WU,WY,WYN,WYNN,XEC,XEL,XL,XLNX,XOM,XRAY,XRX,XYL,YUM,ZBH,ZION,ZTS
2013-02-12,44.62,14.27,78.6,66.8428,35.42,46.96,34.3,73.37,38.89,46.27,30.81,60.36,152.32,38.91,33.15,44.9,11.31,50.15,49.5,85.78,38.63,29.16,41.05,37.82,36.74,62.7,33.02,24.43,45.61,90.21,13.66,2.77,41.82,145.75,84.54,67.49,75.59,258.7,53.49,75.74,66.01,56.7,17.6325,84.18,83.45,88.83,35.2,72.79,27.09,13.51,130.83,35.14,39.43,39.22,62.2,70.01,382.09,75.99,12.245,68.68,30.6,15.43,88.55,47.4166,32.1,165.45,27.9,238.86,22.445,97.7,7.59,37.705,107.03,44.35,24.87,33.3,45.54,97.22,86.82,24.26,34.96,43.21,68.31,39.02,14.36,49.48,43.775,44.068000000000005,29.99,20.01,59.13,80.0,61.98,44.62,54.025,80.59,35.0,19.485,57.2,322.51,119.19,25.84,22.39,21.05,55.78,27.35,59.49,104.61,58.25,101.76,38.26,43.09,20.97,22.64,43.49,41.76,38.3,73.59,51.17,116.5,96.16,54.63,14.5,93.97,39.48,45.04,56.88,24.05,54.95,71.03,64.22,37.66,65.69,40.23,71.46,45.32,15.92,46.81,64.51,69.5,59.215,59.53,17.54,56.78,74.46,56.56,54.32,48.0,62.67,73.93,58.08,67.05,214.53,57.49,60.68,54.34,152.65,11.31,60.21,63.93,43.71,31.95,42.75,65.55,40.35,13.08,51.0,27.37,34.6,35.67,106.12,40.5,102.15,36.5,40.27,16.56,34.72,26.69,63.57,53.0299,58.13,108.95,48.06,66.68,22.58,20.15,40.83,42.97,12.57,28.55,390.7403,70.19,24.785,32.11,37.68,154.11,13.86,223.09,40.71,39.89,7.22,10.035,36.45,62.7,47.08,67.32,66.98,24.4,45.25,53.28,22.33,70.42,65.42,24.74,17.815,46.75,45.185,17.18,80.77,79.2,200.04,46.465,73.44,50.27,18.42,21.19,61.44,42.01,12.24,53.05,34.47,190.4618,49.37,63.02,27.71,67.13,32.4712,48.14,75.8,21.61,49.14,54.98,59.25,9.53,21.51,56.71,89.9,37.74,39.62,37.56,62.0,14.27,46.06,95.87,43.65,44.84,29.9,40.0686,89.41,23.2,78.36,53.8,87.26,29.89,23.32,39.79,42.84,26.87,11.55,60.51,40.11,51.964,67.4,61.87,41.39,20.01,40.67,95.1,36.62,104.83,46.09,27.68,47.11,37.13,13.32,106.38,64.09,98.43,36.02,103.46,15.5867,34.66,101.77,61.49,40.445,41.45,34.61,23.63,27.88,60.83,105.45,217.99,7.92,28.8,56.11,28.32,30.55,72.49,45.28,25.4214,29.43,27.03,27.545,33.26,66.34,68.92,24.24,71.64,35.41,52.93,47.24,12.43,24.19,48.17,56.02,101.56,86.93,33.44,12.78,47.93,42.72,703.38,37.34,31.51,72.17,26.99,31.18,75.98,23.75,95.18,20.32,40.08,34.52,39.6,90.14,64.77,52.03,54.49,68.225,30.52,111.55,57.0,157.13,64.43,120.72,28.61,110.98,128.5,65.885,36.44,121.29,51.55,168.18,7.93,35.31,55.33,45.41,176.79,43.65,91.34,119.57,30.33,71.03,31.19,54.36,68.271,28.13,47.86,16.86,18.95,164.67,62.49,90.92,78.53,82.79,78.79,61.04,34.44,44.16,162.97,44.03,96.34,75.83,29.42,56.93,34.68,31.49,77.49,24.2,64.01,22.7,31.56,35.6,44.22,144.91,40.49,62.73,63.6,45.2,37.3334,74.58,49.01,46.66,73.75,79.9,51.48,23.51,23.0,52.5,33.56,29.14,12.43,25.89,24.17,56.3,98.71,57.01,24.17,67.335,82.31,54.3,34.31,89.98,39.2,71.36,36.3524,59.12,45.65,56.12,85.57,54.23,45.53,45.89,68.16,44.44,91.99,41.95,48.18,39.93,35.51,110.81,36.46,35.84,71.4,14.34,30.31,59.62,122.67,67.0,28.0,28.41,37.58,88.46,42.87,31.84,27.95,64.75,75.44,24.49,33.74
2013-02-19,43.01,14.26,80.72,65.7128,38.19,47.22,34.82,75.4,38.995,47.01,33.08,61.46,154.94,38.98,33.24,45.56,11.37,48.71,49.53,84.81,38.6,29.58,42.21,38.85,38.58,65.84,32.6,25.15,46.74,83.39,13.89,2.82,42.43,148.62,84.131,69.03,74.62,269.75,55.13,76.28,62.77,57.91,18.1,77.3,84.13,88.7,35.445,71.92,27.18,14.63,130.42,35.545,40.07,39.75,62.28,72.93,375.21,74.65,12.19,68.32,30.37,17.33,88.57,48.6933,33.24,166.81,28.24,244.12,22.545,101.02,7.5,38.4,107.35,44.5,24.98,33.45,46.46,95.6,86.95,24.5,35.8,44.88,67.04,36.51,14.25,50.23,44.205,43.706,30.215,20.36,58.37,79.39,60.43,45.06,55.955,82.54,35.4,20.725,58.95,313.05,118.87,26.09,22.99,20.51,53.12,27.76,59.12,104.66,58.6,101.9,40.0,43.7075,21.46,23.08,44.56,34.14,39.1605,73.46,52.66,115.92,97.79,55.59,14.3,90.37,39.53,43.96,57.54,23.29,55.73,70.63,63.02,36.09,64.62,40.4,72.86,43.0,15.97,45.25,64.75,68.96,57.95,60.57,17.585,56.68,75.69,57.0,55.8,47.04,63.6,73.43,58.56,65.7,221.082,57.58,60.72,56.98,153.65,11.29,61.49,61.78,43.35,30.59,42.6,64.42,38.5,12.99,53.18,28.93,33.9,34.26,107.33,41.08,103.62,36.99,40.51,15.96,34.07,26.97,66.28,53.2399,59.32,109.3,53.05,67.03,23.75,20.08,42.28,45.43,12.9,27.68,403.8284,68.75,25.5,32.64,39.24,158.65,14.09,229.13,42.81,40.91,7.14,9.9225,36.41,63.94,48.25,67.55,68.21,24.76,45.54,52.4,21.89,70.93,67.94,25.0,18.27,47.65,44.65,17.28,81.73,73.01,200.32,45.98,73.85,49.02,21.86,21.085,62.21,41.91,12.58,53.64,34.96,194.0898,49.24,64.19,27.66,67.62,33.8639,50.3,76.96,22.25,49.45,56.47,60.14,9.58,21.92,56.39,92.21,37.42,40.05,37.67,64.84,14.105,46.48,99.08,43.92,44.64,30.65,39.1274,90.28,22.41,77.63,54.18,88.23,30.75,24.01,39.41,42.74,27.18,11.7,61.18,40.43,52.286,68.8,62.03,40.83,19.98,41.2,93.85,37.15,103.87,48.57,26.96,45.8,37.0,12.74,108.78,65.01,102.04,36.28,104.18,16.56,34.77,101.89,61.46,42.105,42.22,35.71,24.32,28.045,62.03,105.78,217.15,8.12,29.11,56.95,31.188000000000002,31.49,72.9,42.9,28.0643,27.3,27.26,27.235,32.69,66.2,69.48,24.53,73.2,36.48,53.91,47.72,12.555,24.09,47.95,57.29,102.16,85.8,33.93,13.07,48.46,43.22,703.47,37.22,31.41,75.5,27.71,32.28,77.38,24.49,97.46,19.95,40.25,34.23,39.66,91.31,63.51,52.62,54.98,67.855,30.47,114.73,58.15,152.72,64.76,121.14,28.89,110.74,132.45,65.67,35.34,122.76,51.98,160.42,7.96,36.73,53.94,46.23,177.04,43.24,90.85,121.66,29.965,72.49,31.17,54.29,67.9,27.225,48.68,17.1,21.15,164.1,63.15,91.75,79.99,83.49,79.98,62.42,34.62,44.48,160.5,46.02,96.7,76.46,27.69,57.54,34.18,43.28,79.17,24.54,63.69,22.6,32.29,35.67,45.1,143.05,41.3,61.87,65.65,45.15,37.82,75.0,49.02,43.52,73.81,80.6,51.72,24.13,23.48,53.79,33.94,29.58,12.44,26.75,24.88,57.76,85.68,56.66,24.8,68.765,84.76,55.64,34.08,91.02,39.4025,70.69,38.9,60.16,47.73,54.81,85.75,55.0,46.22,46.52,69.35,44.5,93.36,41.7,48.57,40.21,35.14,112.61,36.62,35.45,68.76,14.25,30.83,58.87,120.39,66.95,28.3,28.8,39.14,89.32,43.49,32.0,28.76,65.15,76.11,24.69,33.84
2013-02-26,40.97,13.26,77.15,64.1385,37.09,46.57,34.06,73.83,38.59,45.0,31.83,61.08,155.64,36.79,33.35,46.33,10.95,46.56,48.81,84.67,37.69,29.5,40.65,38.39,36.36,63.86,31.05,24.995,45.56,85.36,13.63,2.46,41.49,143.56,89.47,66.62,75.51,259.36,54.29,74.53,61.83,60.05,17.5275,73.56,78.58,84.34,35.045,70.88,25.23,14.18,126.53,33.13,39.82,39.43,61.92,70.79,376.15,75.65,11.13,66.77,30.08,16.46,86.86,46.5,32.825,161.99,27.07,236.15,21.905,98.72,7.31,36.67,104.2,41.29,24.21,33.82,45.69,89.95,85.03,23.42,35.66,42.49,69.75,34.63,14.01,49.725,43.59,39.046,30.76,19.75,55.98,86.74,57.88,44.62,56.955,83.62,33.56,19.845,58.98,311.81,113.38,26.18,22.065,20.7,51.47,30.38,58.5,103.96,57.75,99.45,40.38,40.84,20.608,22.14,43.36,34.13,37.93,70.76,50.64,114.96,89.07,55.28,13.9,86.5,37.8,44.95,55.8,22.25,53.9,70.96,63.19,35.14,65.92,41.08,72.25,42.79,15.61,45.79,65.79,69.59,58.11,53.73,17.69,53.82,75.84,58.22,53.33,46.12,62.33,68.57,56.12,61.75,213.09,56.0,59.69,55.12,149.85,10.55,59.56,61.54,43.4,30.6,37.06,62.82,37.29,12.34,50.88,27.39,33.9,31.93,103.16,38.9,94.64,37.04,40.38,15.56,33.04,26.16,61.36,51.7199,58.52,106.18,50.93,66.91,23.05,19.17,42.25,46.01,12.29,26.83,395.4601,69.26,24.54,31.79,34.31,148.0,12.9,223.09,40.49,40.05,6.8,9.7125,35.64,63.31,48.26,67.56,64.61,23.35,45.47,51.33,21.97,69.12,64.56,24.61,18.5,47.31,43.65,16.59,81.62,68.96,199.14,45.65,71.63,48.79,20.96,20.58,62.64,42.75,12.42,51.3,34.59,189.5865,48.9,60.08,25.64,66.36,32.7434,47.7,75.75,20.46,47.6,52.53,59.95,9.24,21.42,53.92,94.22,36.21,38.32,38.11,59.24,14.36,45.64,97.84,42.68,43.63,29.64,37.2647,88.49,22.37,75.89,54.43,87.3,28.49,23.71,36.59,41.65,26.52,11.4,56.84,39.59,50.97,69.14,59.72,38.53,18.72,40.2,96.22,36.44,104.08,47.5,26.95,44.12,34.86,12.11,104.61,66.61,95.42,35.94,102.31,16.3167,34.3,99.2,56.34,40.275,42.42,32.86,22.44,27.37,60.63,102.05,209.82,7.955,28.33,54.395,30.21,31.45,72.27,41.44,26.2985,23.54,27.15,27.135,32.97,65.06,66.84,23.83,71.34,33.79,52.48,43.85,12.37,22.77,44.34,57.09,101.76,81.78,32.99,12.87,46.58,41.71,678.49,35.79,32.16,75.62,27.03,30.84,76.08,24.3,91.65,19.05,41.66,33.83,38.37,91.6,61.14,50.74,54.79,66.34,30.5,113.67,54.64,151.14,61.23,119.79,27.89,110.58,124.28,65.27,33.88,124.14,50.98,161.63,7.5,34.96,49.39,43.83,170.12,43.14,88.78,122.26,28.115,71.36,30.9,54.21,70.41,26.64,48.45,16.21,21.58,155.94,60.93,93.15,76.33,80.67,77.78,61.15,34.87,44.71,157.88,45.87,95.03,77.05,27.41,56.9,31.33,44.71,76.26,20.44,62.77,22.46,31.88,35.49,45.0,139.18,39.8,64.05,66.01,43.67,36.88,73.24,46.5,43.73,70.48,80.04,51.26,22.4,23.36,52.28,33.76,28.06,11.8825,25.98,24.34,56.68,86.2,53.05,23.77,66.97,81.94,51.1,33.79,89.2,39.4575,68.66,37.6262,57.28,44.93,50.58,83.0,53.9,44.78,44.18,69.55,46.12,91.49,40.8,45.87,40.43,34.75,110.1,36.6,33.79,71.11,14.0,29.35,58.32,115.5,67.0,28.36,28.42,36.67,88.51,40.88,32.08,27.0,64.87,73.53,23.76,32.04
2013-03-05,42.66,14.05,76.95,61.5919,37.51,48.27,34.67,76.92,41.46,45.77,32.21,62.66,158.96,39.34,34.29,47.66,12.18,47.85,51.01,86.46,38.25,30.36,42.6,38.79,37.49,63.56,31.8,27.925,47.21,91.01,13.74,2.43,42.22,149.15,93.44,70.27,78.65,275.59,58.3,78.47,62.27,60.75,18.2925,72.85,82.73,86.9,36.29,72.52,25.05,14.57,126.74,34.33,41.8,40.24,64.12,70.48,382.32,78.66,11.55,70.24,30.41,18.4,89.19,48.3566,34.015,171.31,27.84,244.39,22.095,102.66,7.38,37.76,105.25,43.6,24.91,34.73,46.28,90.21,86.75,24.74,36.02,44.88,71.6,36.2,14.64,54.185,46.14,40.306,30.775,19.5,57.54,87.61,59.39,45.79,57.855,84.77,34.83,20.475,61.63,329.24,116.45,27.0,22.715,21.86,53.95,31.545,60.2,105.87,57.66,103.15,41.69,46.4425,21.218000000000004,23.58,43.95,35.23,39.92,73.84,52.3,117.93,88.89,56.51,15.86,90.11,40.58,48.92,56.41,23.8,56.48,76.6,68.09,34.71,68.01,46.0,73.47,44.28,16.46,46.62,67.52,70.16,61.675,54.08,18.51,55.26,77.28,59.58,56.67,49.99,65.85,71.12,56.25,62.35,217.4,56.14,63.1,58.11,150.8,10.89,62.15,63.58,43.81,31.44,39.55,65.91,39.46,12.87,51.57,27.52,35.47,31.54,107.91,40.06,93.43,38.28,42.295,16.02,35.34,26.33,61.63,55.0599,60.74,108.01,51.32,67.67,23.59,20.0,45.02,46.49,12.52,27.58,419.7213,72.77,24.185,34.38,35.26,152.96,12.8,231.78,41.0,40.7,7.18,9.9575,36.94,65.56,49.63,70.47,69.82,24.15,48.07,53.39,22.42,70.68,64.95,25.12,19.085,47.23,44.95,16.61,85.2,67.44,206.53,46.625,73.42,53.0,22.63,21.51,67.88,45.26,12.94,53.24,35.15,175.2398,51.81,62.3,27.7,70.2,33.7906,50.03,77.66,19.98,49.49,54.37,61.42,9.52,22.21,55.55,95.87,37.46,40.24,38.68,60.52,14.795,46.67,105.64,43.08,45.25,31.46,39.8922,90.2,20.48,76.81,55.54,87.81,30.88,24.16,38.76,43.12,26.19,12.11,60.77,41.72,52.71,69.06,61.35,39.46,20.02,41.17,95.81,36.92,108.39,50.06,28.51,45.78,36.43,12.09,110.25,69.9,101.48,37.27,104.45,16.35,34.24,102.77,58.36,44.375,43.25,32.54,22.74,28.35,62.97,103.66,214.06,8.73,30.69,54.675,30.03,32.45,73.88,38.6,25.9614,22.73,28.32,27.45,34.18,64.91,67.03,24.48,75.29,34.14,54.37,45.41,12.8,23.69,45.33,57.84,104.57,82.45,33.94,13.21,48.36,43.34,718.41,36.48,33.45,76.9,28.07,32.42,77.05,24.65,96.45,20.22,42.73,34.82,40.03,92.28,63.66,52.65,57.22,68.11,31.31,114.985,56.76,153.98,65.77,125.07,29.04,113.41,125.23,67.97,34.7,127.73,53.27,174.64,7.92,35.67,51.99,44.76,177.09,45.17,89.51,125.75,29.68,78.53,31.28,54.85,73.03,28.255,49.71,16.98,22.73,164.86,59.98,97.1,76.95,82.93,80.6,64.54,35.01,45.36,162.61,48.19,98.17,79.53,28.0,57.5,32.34,44.14,78.34,20.87,66.0,24.2,32.84,36.6,46.97,142.84,40.83,66.68,70.17,45.18,38.2734,76.43,50.1,47.68,73.93,81.46,52.145,23.33,24.11,55.05,35.0,29.43,12.4775,29.55,24.34,58.41,91.68,53.5,25.65,69.54,84.07,54.94,33.81,91.02,40.0725,72.7,39.1095,60.69,48.24,53.69,84.11,59.32,46.58,48.33,71.81,47.69,94.96,40.72,48.37,41.91,35.88,118.88,37.5,33.71,73.72,14.27,30.38,60.95,116.0,64.86,29.23,29.47,37.19,89.61,42.01,32.88,28.45,66.3,75.83,24.5,34.29
2013-03-12,42.62,15.5,77.36,61.2042,37.17,48.65,34.98,78.02,41.4,46.48,32.56,63.97,156.81,40.3,33.82,47.29,12.55,51.24,50.75,90.1,39.11,30.07,43.82,38.74,34.77,64.9,32.96,28.515,47.71,91.75,13.4,2.61,42.33,150.04,91.75,71.92,76.03,274.13,57.79,79.5,64.14,59.64,18.2,75.27,84.26,88.91,36.33,72.03,25.86,14.86,125.73,35.45,42.88,40.13,65.29,71.42,388.87,84.16,12.01,69.28,31.37,20.29,90.14,49.3833,34.085,176.05,28.61,249.44,22.545,103.01,7.59,39.64,104.78,46.95,25.22,34.7,46.83,89.74,88.04,25.31,35.76,45.92,70.63,35.34,14.05,56.86,46.535,41.343999999999994,30.55,21.49,57.35,89.5,61.55,46.65,57.53,84.35,36.32,20.36,62.5,318.45,118.63,26.97,23.25,21.77,54.6,32.6,61.81,105.4,58.73,103.75,41.52,45.1975,21.7,23.38,44.17,34.57,39.5075,74.05,52.08,118.25,91.48,56.02,16.03,90.85,42.13,47.76,56.2,23.63,57.11,77.91,69.92,35.02,68.37,44.64,73.21,44.39,16.42,47.93,66.66,69.54,58.68,55.86,19.25,52.96,79.45,58.87,56.54,50.71,65.83,73.16,56.82,65.04,215.86,54.99,65.41,59.42,149.64,11.4,62.84,63.47,43.985,32.07,38.24,64.97,38.91,13.39,50.86,27.83,35.59,33.44,106.43,41.17,93.46,38.48,42.35,16.25,32.76,26.44,63.83,54.7399,61.27,104.97,51.64,68.77,23.41,19.97,46.18,46.27,12.67,28.37,414.2188,75.44,24.055,36.53,35.7,151.85,12.98,225.8,41.96,42.15,7.38,10.085,38.02,65.11,49.04,70.75,70.38,25.65,51.34,54.55,22.46,73.59,63.79,27.71,19.29,44.93,45.015,17.21,84.29,68.54,210.55,45.755,74.79,53.27,23.48,21.64,66.36,46.23,13.03,55.03,36.38,170.9732,51.73,61.26,28.12,70.1,33.1309,52.0,78.56,20.77,50.28,53.95,61.73,9.86,21.95,54.64,94.08,37.27,41.22,38.96,56.28,15.405,47.33,106.09,43.96,44.74,32.52,40.1863,89.76,21.4,77.42,55.08,90.37,33.0,24.16,39.04,42.32,26.89,12.34,64.08,41.97,52.316,67.77,61.97,39.98,19.56,41.61,98.76,36.83,109.85,51.07,28.21,46.0,39.49,12.35,112.49,70.35,103.93,36.8,105.13,15.3967,34.16,103.38,61.9,44.495,45.04,34.07,22.67,27.91,62.13,104.09,217.79,9.32,30.95,56.9,30.85,32.1,73.1,39.66,26.0157,23.53,28.35,26.745,34.69,66.23,67.63,25.33,74.48,34.0,54.79,47.34,12.74,25.22,45.2,59.13,103.87,83.59,33.89,13.27,50.2,43.04,722.04,37.18,32.76,76.89,27.94,33.82,77.17,24.9,97.05,19.75,43.13,35.46,38.81,90.89,65.42,50.92,56.92,69.57,30.39,117.6,59.87,147.0,66.22,118.01,29.51,112.92,127.11,67.04,33.68,128.07,52.61,172.19,8.13,35.84,50.6,46.71,174.41,43.7,88.54,124.62,27.95,79.3,31.54,56.13,72.38,29.14,49.2,17.74,22.77,167.63,62.18,97.47,77.44,85.43,81.75,64.21,35.291,45.2,159.52,48.45,98.65,78.8,29.46,59.13,34.94,43.28,79.78,21.51,66.79,24.445,33.6,36.72,48.09,146.9,42.09,67.11,68.46,44.59,39.18,77.7,48.81,51.15,74.62,81.74,51.46,23.86,24.35,56.42,35.62,30.66,12.1275,29.95,24.28,60.87,87.19,54.83,26.99,69.5,84.53,53.53,34.34,93.14,39.95,73.7,38.7857,61.95,45.55,54.28,83.64,58.7,46.41,52.41,70.46,48.36,94.24,41.04,49.99,41.53,36.66,118.86,36.96,34.79,73.6,14.5,30.2,62.1,117.98,72.12,28.96,29.9,38.51,89.16,42.75,34.36,28.53,68.73,76.2,25.47,33.82
2013-03-19,42.0,16.78,80.07,64.9271,38.36,50.06,33.54,76.18,40.75,44.91,32.7,64.31,156.74,39.67,34.3,47.7,12.45,50.52,49.81,89.8,38.38,30.28,44.38,39.9,34.67,62.61,32.29,30.46,47.64,92.74,12.96,2.67,42.76,151.86,92.4,73.97,74.53,256.41,56.83,79.21,64.31,59.01,18.36,74.66,83.28,88.21,36.175,71.0,25.44,14.01,126.19,35.3,42.9,40.41,65.13,70.86,390.41,85.51,12.71,69.37,30.79,22.25,91.74,49.2933,34.345,175.61,28.21,253.18,22.995,101.77,7.27,38.995,102.81,45.79,24.915,35.26,42.35,88.27,87.74,24.46,35.96,45.75,69.99,33.21,13.37,55.52,45.38,39.282,30.82,21.04,59.04,100.38,62.21,46.18,56.27,84.48,35.92,20.065,61.14,317.23,115.08,27.09,22.55,22.97,53.64,34.035,63.55,104.42,59.31,102.12,42.19,42.8075,21.52,23.95,45.93,34.25,38.55,71.3,54.38,119.46,93.01,56.74,16.54,90.57,44.24,47.77,56.25,24.31,56.31,77.78,69.69,34.67,66.21,44.37,73.58,44.98,16.67,48.66,66.02,69.91,58.94,57.26,17.15,51.095,79.19,58.96,56.23,50.74,62.25,72.77,56.95,63.635,206.97,55.05,67.09,59.18,152.05,10.44,61.39,64.02,39.33,33.47,37.43,62.65,38.21,13.16,50.71,26.55,36.37,32.98,106.46,41.6,89.7,38.0,42.54,16.51,31.95,25.98,63.5,55.7533,59.27,105.57,51.0,69.92,23.32,19.86,44.38,46.42,12.83,28.1,406.0657,75.7,23.695,35.85,33.61,148.84,13.27,223.66,39.62,41.83,7.48,10.3325,38.27,65.4,48.24,68.79,70.0,25.52,52.5,52.79,21.98,74.03,61.28,27.6,19.765,44.61,45.02,17.01,85.45,70.27,213.44,45.68,75.45,51.73,22.53,21.14,65.29,44.95,12.95,55.12,36.31,160.8932,52.96,62.49,28.35,73.89,32.7016,54.19,78.86,19.14,49.2,52.45,62.47,10.07,21.96,51.35,93.9,36.55,41.04,39.33,56.15,15.87,46.56,107.91,43.8,43.56,32.51,40.6078,88.3,20.955,81.03,54.79,92.87,32.35,24.33,38.24,40.92,26.5,12.64,64.01,41.67,51.16,70.22,62.05,39.55,20.41,41.81,98.4,36.03,106.87,50.67,28.34,45.12,38.68,12.78,112.64,71.01,102.99,37.18,105.18,16.5733,33.69,102.3,61.34,44.155,43.7,33.96,22.39,28.18,61.67,102.85,218.75,9.24,30.77,57.125,30.26,31.99,75.12,40.37,25.91,23.39,28.33,26.915,34.49,68.44,68.03,25.97,75.45,33.95,53.99,46.15,12.47,25.41,44.87,58.53,103.25,80.18,33.91,13.47,49.95,43.59,684.15,37.57,33.15,76.67,27.99,33.49,77.11,24.94,95.18,20.82,43.02,35.0,38.32,90.81,66.25,53.3,56.66,70.435,30.16,117.3,59.42,149.85,65.41,114.26,29.27,113.48,124.02,64.72,32.85,128.92,52.51,175.28,8.29,35.76,49.79,47.41,167.2,43.93,86.71,125.32,27.73,80.61,32.1,57.1,70.65,28.415,49.23,17.55,24.0,169.48,63.15,96.4,73.98,84.95,81.4,64.99,34.96,45.47,157.1,47.79,101.54,79.15,28.56,59.26,34.39,47.2,81.29,21.635,64.77,24.22,34.42,36.14,47.83,150.44,41.65,66.46,68.5,45.1,39.1534,77.41,48.47,52.3,74.31,83.19,50.295,24.17,23.83,55.48,34.66,30.7,12.12,31.8,24.18,62.52,74.91,55.17,27.44,69.79,85.08,53.42,33.95,93.11,39.0,72.31,39.4452,61.42,44.22,53.04,81.72,59.83,45.34,51.9,69.89,48.95,93.99,44.74,48.86,41.09,37.49,115.17,37.42,35.29,72.45,14.57,30.72,62.4,119.93,76.88,28.55,30.12,37.82,88.58,41.92,34.48,28.44,68.84,73.0,25.3,32.8
2013-03-26,41.82,16.51,81.6,65.8765,40.21,50.72,34.35,74.54,42.75,45.75,32.83,64.79,157.94,40.6,34.6,48.03,12.39,50.6,52.49,91.09,38.44,30.55,44.06,40.72,35.08,62.01,33.6,31.395,48.65,91.37,13.4,2.54,42.69,151.56,98.66,73.69,75.89,260.31,58.5,79.24,64.76,61.82,18.315,74.4,88.88,87.92,36.595,71.49,25.26,14.46,127.09,35.79,42.91,40.95,67.17,69.67,394.04,86.62,12.28,71.46,31.21,22.7,93.91,50.2399,35.17,177.09,28.31,258.41,23.24,103.82,7.44,38.69,100.66,44.83,24.98,35.47,42.18,87.0,88.29,25.02,36.58,45.71,70.48,33.77,13.74,56.235,46.61,38.666,31.89,20.73,59.01,102.99,62.24,46.95,58.66,87.54,36.09,20.735,61.56,318.5,113.15,27.35,22.26,23.75,55.06,33.875,62.7,104.93,60.44,105.97,44.3,43.3975,20.845,24.14,43.37,35.2,37.31,70.99,55.29,120.98,98.69,57.59,16.55,87.26,45.02,52.22,57.25,24.21,56.63,79.53,69.76,37.96,67.08,48.35,72.76,46.7,16.94,50.69,66.82,70.95,59.16,57.21,17.77,52.09,78.88,59.66,56.46,50.49,63.99,69.23,55.49,64.45,211.92,55.39,68.18,58.41,150.29,10.61,61.16,62.69,40.99,33.77,35.8,62.09,39.49,13.31,50.48,25.205,36.73,32.8,97.72,41.25,87.57,39.02,43.26,16.41,33.79,25.77,65.49,55.1399,56.96,106.78,53.59,70.3,23.12,19.99,45.76,48.63,13.11,28.15,406.6162,77.3,24.7,35.03,33.29,146.54,12.82,220.92,40.13,43.83,7.47,11.025,40.19,66.93,49.37,70.05,71.11,26.25,53.2,53.08,22.59,75.48,61.14,28.91,20.075,44.9,45.57,17.15,86.94,66.7,212.36,46.14,75.74,53.88,22.05,21.765,65.73,45.77,13.07,55.38,35.69,165.7498,53.24,61.01,28.74,73.6,32.733000000000004,55.31,80.85,18.65,48.64,54.28,64.0,10.09,22.17,52.05,97.32,37.99,40.84,40.69,55.22,16.395,46.73,109.51,43.99,44.15,33.17,40.902,89.14,21.36,80.09,56.29,93.7,32.6,24.61,38.22,41.16,27.38,12.95,63.45,41.99,53.547,69.21,63.71,41.29,20.64,43.56,98.5,36.71,107.93,52.08,30.29,46.65,38.58,13.14,113.0,72.41,102.0,37.85,106.07,16.2767,34.36,103.79,58.73,45.465,44.39,34.07,22.22,28.155,63.46,102.57,214.21,9.92,29.02,57.8,29.54,32.51,77.17,41.08,27.23,22.64,28.63,29.735,34.97,69.29,69.47,25.8,75.75,33.31,54.86,45.99,12.5,25.59,46.5,58.89,103.59,78.01,34.84,13.43,50.15,43.73,694.59,37.49,33.59,78.92,28.6,33.77,77.4,24.98,90.28,20.17,44.05,33.61,40.14,91.76,66.28,51.65,57.07,67.02,30.59,117.54,59.59,151.45,67.24,113.94,28.45,112.1,126.07,66.62,32.38,128.44,52.31,169.71200000000002,8.3,36.98,49.25,46.0,167.57,45.29,84.85,126.11,29.715,82.46,32.59,57.81,71.82,28.525,50.05,17.63,24.2,169.41,62.77,97.41,74.42,86.29,82.56,64.13,35.47,46.14,159.33,50.34,104.63,80.18,28.74,59.76,35.88,47.54,81.19,21.6,64.86,24.57,35.0,36.74,49.27,150.27,41.68,68.61,68.41,47.02,39.5467,74.9,49.5,52.44,74.76,83.36,50.955,24.21,24.73,56.91,35.095,29.86,12.6625,31.79,24.11,63.84,79.3,55.65,28.07,69.74,85.04,52.98,33.68,92.65,41.865,71.79,39.4524,61.34,44.95,51.5,82.33,61.38,46.77,54.34,71.99,49.48,93.26,47.57,48.678999999999995,41.86,37.3,114.29,38.64,37.18,74.77,14.82,30.99,63.44,124.54,76.08,28.98,30.25,38.2,90.13,41.9,34.32,27.69,71.11,74.21,25.15,32.51
2013-04-02,40.66,15.74,82.83,61.3988,40.71,52.41,36.12,76.67,43.845,45.2,34.11,65.28,159.84,39.57,35.16,48.34,12.51,54.3,52.9,96.68,39.0,30.71,45.3,41.35,34.84,61.16,31.85,29.63,49.81,99.03,13.241,2.39,42.2,152.38,106.4,73.43,78.73,263.322,55.02,79.38,68.46,61.44,17.6825,76.16,85.64,85.01,36.855,70.67,24.9,14.73,128.14,34.88,42.2,41.37,67.64,68.25,400.99,84.09,12.15,72.21,30.66,21.64,96.58,50.2033,35.93,198.19,28.12,257.44,24.005,105.14,7.89,37.66,102.14,44.11,24.75,35.54,42.05,84.88,88.95,24.4,36.86,45.51,70.6,34.22,13.56,58.895,47.41,37.224000000000004,32.27,19.96,58.64,103.8,64.75,47.53,59.45,89.17,35.15,21.148000000000003,60.6,323.09,111.84,27.85,22.285,23.96,54.63,33.325,61.89,107.71,60.04,107.68,46.0,43.8325,21.22,24.19,44.06,35.18,38.18,71.51,55.24,119.0,94.02,58.62,14.94,84.04,44.68,50.54,56.8,23.41,57.46,78.69,70.02,38.07,66.38,47.32,71.17,46.64,17.26,51.33,68.53,72.62,63.6,54.95,17.545,56.16,80.2,60.51,57.36,50.8,65.28,68.2,54.89,64.525,212.99,55.53,67.27,58.46,152.38,10.365,60.93,64.03,41.575,34.69,35.3,61.87,39.61,13.01,49.76,25.42,35.68,31.92,97.12,42.05,89.83,39.98,43.525,16.16,33.75,25.74,64.28,54.3499,56.4,108.17,53.82,67.0,23.34,20.16,48.2,48.81,13.33,27.93,406.9265,78.01,24.505,35.74,34.25,146.68,12.215,218.7,39.89,43.39,7.27,11.48,39.86,68.97,50.47,71.02,74.14,25.55,52.48,51.6,22.54,74.21,59.89,29.24,20.495,46.25,46.04,17.25,86.43,79.11,214.36,45.5,75.3,54.53,22.77,21.455,65.38,48.06,13.0,54.25,36.27,163.5998,54.63,60.86,28.83,73.33,33.1309,54.34,82.69,18.27,48.28,54.99,64.29,9.75,22.54,51.4,99.79,38.84,41.49,40.72,54.16,16.395,45.71,105.83,44.29,46.0,33.53,39.2451,92.75,21.38,80.03,56.5,95.01,32.6,24.965,38.02,40.69,27.36,12.68,59.84,42.03,54.059,69.45,64.64,41.46,19.64,44.02,100.26,36.09,108.49,52.91,30.8,47.33,38.16,12.48,111.32,72.62,100.82,37.6,106.52,16.2033,35.2,104.0,58.04,42.74,44.91,33.57,21.7,28.8,63.7,102.08,211.58,9.3,28.6,57.94,29.92,27.91,78.16,39.83,25.2414,22.1,29.28,29.45,35.35,69.4,69.55,26.62,76.25,34.7,54.78,43.65,12.275,25.84,48.48,59.27,104.38,80.68,35.87,13.11,50.23,44.97,705.91,37.67,34.23,79.74,29.23,33.93,78.96,25.47,88.79,19.86,45.0,33.85,40.14,94.41,66.81,51.89,57.7,66.845,31.16,119.74,59.04,152.92,66.84,105.94,27.02,111.0,123.48,66.255,32.81,128.09,52.67,185.0,8.04,37.03,48.84,45.14,167.93,46.4,84.33,124.67,29.705,79.1,32.6,57.54,72.58,29.13,51.27,17.31,23.05,167.91,68.21,99.17,74.81,87.06,81.76,63.97,35.62,46.82,160.97,51.82,105.33,80.59,27.81,58.71,36.28,48.79,79.58,20.97,65.56,24.66,35.06,37.57,52.28,150.39,41.46,68.83,72.0,47.37,39.7467,78.56,50.39,50.51,74.85,84.41,51.305,24.75,24.32,57.58,34.765,28.77,12.905,29.38,24.33,64.6,82.48,61.74,27.98,70.41,83.92,52.62,34.1,92.99,41.9875,71.91,39.9833,61.71,42.41,48.92,84.41,61.08,46.9,53.93,74.02,49.5,95.5,47.32,50.07,42.6,36.88,114.99,38.78,37.67,76.02,14.84,31.6,64.52,123.26,71.53,29.65,30.81,37.28,90.58,41.62,35.4,27.22,70.15,75.33,24.48,32.55
2013-04-09,41.65,15.7,78.71,60.9971,42.55,52.92,36.66,76.21,44.17,44.07,32.73,64.46,154.32,38.46,34.93,49.0,12.64,55.53,49.75,97.71,39.63,31.66,45.64,41.3,34.67,61.92,31.88,29.525,49.73,98.32,13.3,2.63,40.77,151.01,104.3,72.81,79.29,261.14,54.05,76.51,68.48,60.9,17.08,75.49,86.81,86.0,36.5,71.42,25.17,14.67,133.5,34.78,43.07,41.64,65.22,73.42,384.03,87.21,12.25,70.53,30.9,25.74,96.04,50.5799,34.695,193.17,27.71,254.04,23.71,105.12,7.82,36.27,108.32,43.89,24.67,34.34,42.88,85.9,90.53,25.01,36.15,45.86,72.33,33.93,13.32,58.305,46.565,38.196,31.565,20.14,60.26,103.58,64.93,47.66,58.625,86.9,34.95,20.64,59.96,332.67,114.98,28.25,22.605,23.94,55.81,35.165,62.72,106.61,59.78,105.79,44.92,41.3325,20.97,23.9,44.3,36.35,37.21,67.22,56.58,118.64,92.14,59.85,14.8,86.68,43.3,49.85,56.65,23.27,59.14,78.6,70.68,36.24,70.44,45.99,73.03,46.35,17.4,49.1,68.58,72.62,62.855,55.23,17.45,56.07,80.57,61.49,57.96,50.58,64.48,68.55,56.53,64.125,211.2,58.31,69.4,57.34,155.8,10.18,60.47,67.65,41.795,35.71,37.01,62.43,40.53,12.8,50.88,26.59,35.09,33.76,95.34,44.71,72.45,39.09,43.115,16.39,32.96,25.68,62.68,54.4599,57.15,111.83,53.46,69.33,23.06,20.68,48.3,48.69,13.35,27.53,389.2138,77.45,22.775,36.74,33.65,146.52,12.55,226.23,39.11,43.91,7.39,12.03,37.63,70.56,51.7,71.2,73.3,26.16,51.08,51.16,21.63,73.54,61.83,28.3,20.09,44.95,45.395,17.59,85.7,78.03,209.22,45.255,73.89,55.53,21.48,21.75,63.8,47.32,13.33,55.61,36.51,165.5098,54.26,62.14,28.88,73.5,33.1728,53.56,81.52,18.0,48.68,54.84,63.87,9.85,23.19,52.64,99.31,38.64,41.68,40.71,55.69,16.03,47.42,105.78,43.9,47.4,32.89,38.9608,93.22,21.44,81.84,56.74,95.41,31.9,25.4,38.87,41.16,28.46,12.9,60.22,43.67,52.763999999999996,71.57,65.54,41.6,19.59,43.26,101.06,35.92,106.83,52.91,30.13,46.76,36.99,12.64,113.5,70.89,98.98,37.34,105.95,17.5566,35.48,105.26,59.95,42.4,45.51,33.47,21.74,29.61,63.64,102.79,208.61,9.57,28.61,58.44,30.34,28.75,79.19,40.03,24.1943,22.72,30.17,29.945,34.91,71.56,68.36,26.93,74.38,34.17,54.75,44.44,12.63,25.29,48.71,58.72,102.06,81.57,35.22,13.19,49.0,46.63,696.13,36.59,34.56,79.21,29.11,34.09,78.26,25.76,90.55,19.45,44.62,34.22,39.85,94.54,66.35,53.28,58.16,66.325,31.48,118.39,56.44,157.15,64.66,107.78,27.91,111.36,123.2,65.96,33.0,127.81,53.55,191.08,8.08,35.47,48.27,44.93,170.08,46.28,87.57,122.79,29.805,80.09,32.7,57.96,73.88,28.705,51.35,16.97,22.09,166.34,67.98,98.2,75.43,88.19,83.1,66.29,34.71,47.31,169.11,51.42,105.48,81.79,28.91,58.48,36.96,48.63,77.8,21.1,66.34,24.21,34.33,37.76,49.97,151.21,41.41,68.92,71.01,47.66,38.9067,78.38,49.93,48.29,74.44,85.27,54.215,23.68,24.48,58.8,35.16,28.68,13.5525,29.29,24.82,62.08,84.53,62.18,26.71,69.865,83.55,53.21,33.69,94.45,41.1875,71.0,40.2262,64.6,42.66,49.65,86.8,59.78,45.5,52.6,75.53,49.36,93.15,48.31,51.57,43.02,37.45,115.23,38.89,37.66,78.12,14.8,31.27,63.2,123.53,72.8,30.28,31.09,36.76,88.77,41.3,35.12,27.96,66.79,75.37,24.3,33.44
2013-04-16,43.39,16.37,80.47,60.8914,42.45,54.95,36.4,77.49,45.28,44.74,32.18,65.41,157.64,37.69,35.07,49.54,12.87,56.64,50.21,96.97,39.56,31.4,47.51,42.1,34.79,61.61,31.8,30.56,49.5,96.2,13.46,2.44,40.69,148.04,110.85,73.14,80.59,272.34,50.92,78.03,70.16,62.11,17.245,72.05,82.16,86.5,36.755,71.45,24.3,14.43,133.9,34.58,41.66,42.28,64.59,71.0,384.59,86.89,12.28,70.9,30.41,23.66,95.42,50.9366,35.87,202.125,27.76,257.22,23.465,107.16,7.43,37.04,109.53,46.66,24.84,35.5,43.12,82.61,89.87,24.31,36.72,46.17,74.03,33.31,12.98,61.248999999999995,47.015,35.398,31.875,19.06,57.17,104.91,66.4,48.77,59.665,89.53,34.78,20.705,59.45,342.17,111.32,28.69,23.175,23.85,53.33,32.395,61.4,108.63,57.44,105.55,46.53,42.5975,21.16,24.14,45.05,37.16,36.315,71.1,57.63,117.01,83.48,59.82,15.87,83.18,43.01,50.47,58.35,22.45,60.75,79.39,71.25,37.93,71.54,47.73,72.22,47.52,17.73,49.44,71.36,73.57,63.25,54.03,17.37,57.01,81.92,61.53,58.48,51.82,67.89,67.87,54.37,59.575,214.85,58.53,66.83,56.19,156.91,9.72,59.05,69.53,42.465,36.0,36.07,63.13,41.7,13.12,49.25,26.92,35.48,29.25,95.14,45.8,73.94,40.65,43.74,16.15,33.31,24.63,56.64,53.0299,58.21,111.81,50.0,68.39,23.1,21.26,52.01,49.86,13.18,29.47,397.0817,76.02,22.61,37.78,33.7,144.1,12.42,241.88,39.69,44.33,7.22,11.63,37.87,71.86,52.48,72.46,68.79,27.37,51.5,51.63,21.57,73.18,58.7,27.65,20.53,42.36,45.635,17.67,89.18,76.25,212.0,44.82,75.15,57.86,21.14,21.915,64.22,47.47,13.2,54.96,36.97,170.1265,56.84,62.76,29.51,71.39,33.068000000000005,51.21,83.44,18.14,48.49,56.17,64.94,9.65,23.03,53.43,101.58,38.37,42.45,42.37,52.97,16.65,47.08,103.62,43.39,49.35,33.22,37.9412,94.39,21.43,82.68,57.18,96.26,32.62,25.655,37.99,41.48,29.58,13.18,57.33,43.93,53.158,69.39,67.42,41.75,19.33,42.98,103.04,36.3,107.77,54.63,30.63,46.65,36.86,12.49,113.58,71.9,98.11,38.11,106.15,18.83,35.38,105.36,57.9,39.435,46.96,31.06,21.85,28.97,62.96,98.48,203.97,9.87,28.3,54.965,30.0,28.64,79.71,33.78,25.1214,20.09,30.51,30.25,35.07,71.29,66.68,26.77,75.87,35.81,53.4,43.39,12.96,25.73,50.0,59.6,99.99,81.6,35.66,13.07,48.65,46.98,720.7,37.28,35.04,80.0,30.94,34.92,80.1,24.99,88.02,18.6,44.28,34.62,41.41,94.97,64.79,52.52,58.88,67.275,31.86,118.41,56.72,156.29,59.28,106.55,27.31,110.13,113.61,65.81,33.14,124.67,54.32,216.76,7.97,35.99,51.28,45.11,171.28,44.89,84.76,121.26,31.9,74.92,33.06,57.39,75.74,29.28,52.08,16.96,21.87,174.53,66.98,102.25,73.29,87.7,82.65,67.56,34.61,48.13,174.48,52.01,109.21,81.3,27.98,58.31,35.335,48.11,77.09,21.64,65.08,24.15,34.46,37.94,50.9,148.16,41.37,68.38,71.52,47.72,39.6334,81.82,51.71,52.94,76.07,86.55,52.865,23.67,24.58,59.73,35.735,29.35,14.1925,30.86,24.96,61.21,86.645,62.81,26.8,69.805,83.22,52.21,32.72,94.51,41.1775,69.3,40.4214,66.19,39.64,48.69,87.07,59.75,46.0,54.39,77.77,50.46,91.69,49.06,52.03,43.24,37.06,116.78,39.05,37.51,78.68,15.0,30.6,64.03,127.04,70.11,30.5,31.15,37.08,86.61,42.22,36.28,27.66,66.65,73.5,23.78,33.21
2013-04-23,42.61,16.3,80.55,58.0185,45.14,56.3,37.21,76.3,44.87,43.43,32.55,66.36,166.42,37.26,35.91,50.64,13.15,55.55,50.67,98.77,40.62,31.02,47.28,42.16,35.47,59.12,31.99,30.57,49.8,91.69,13.43,2.53,40.82,149.03,112.76,73.64,81.9,268.9,53.82,76.73,69.33,61.13,18.34,70.46,81.57,85.18,36.99,71.58,24.36,14.58,131.89,32.37,41.29,41.16,67.45,71.66,383.62,88.18,12.07,69.85,29.97,24.13,95.84,50.5966,35.665,212.76,27.54,259.48,23.49,106.68,7.35,36.68,108.42,46.46,24.84,36.09,43.8,84.1,90.0,24.17,36.45,46.75,74.88,33.53,12.67,63.0,46.465,35.884,31.97,18.94,57.41,104.41,65.64,48.67,60.715,89.48,35.1,20.45,59.86,361.27,107.49,29.0,23.535,24.19,56.34,32.95,61.35,108.2,57.78,107.25,46.73,41.08,20.91,23.8,44.65,37.89,32.495,67.82,58.02,117.48,84.39,61.01,16.72,84.78,44.33,52.15,56.51,23.55,62.59,78.98,70.91,39.86,73.65,48.2,69.1,47.78,17.52,49.88,72.77,74.41,61.51,52.93,17.42,52.49,83.79,62.5,59.94,52.71,70.38,70.6,54.64,58.5,219.41,57.73,67.79,56.45,153.87,9.95,58.16,69.5,41.405,36.87,35.42,64.2,41.65,13.36,49.15,25.98,36.71,28.52,93.17,45.91,72.33,40.96,44.135,16.47,32.52,24.13,54.38,51.2966,59.19,113.94,51.7,67.1,21.5,21.67,53.33,50.68,13.13,29.85,404.3539,74.16,22.965,36.77,33.59,142.94,12.21,245.86,39.69,47.76,7.06,12.0,37.86,73.5,53.05,73.38,68.21,27.4,50.98,52.86,20.94,74.76,59.53,28.35,20.925,43.1,44.905,18.01,91.25,72.88,191.61,43.325,77.09,62.44,22.67,23.375,63.98,47.69,13.89,53.45,37.36,157.0232,57.12,62.76,29.69,70.28,32.5131,51.05,85.45,17.36,48.17,55.19,66.51,9.59,22.97,55.21,105.49,39.53,44.1,42.7,54.09,17.335,47.71,106.91,43.64,48.29,33.4,40.6372,93.54,21.16,81.35,58.33,97.06,32.37,26.09,38.01,42.52,29.92,13.34,59.34,43.95,53.1,68.76,67.16,41.87,20.03,44.21,99.76,35.4,106.23,55.07,31.86,46.59,37.74,12.75,115.0,72.11,96.65,37.41,107.39,18.8966,35.53,103.75,58.3,40.775,48.63,30.69,21.61,30.6,61.75,99.56,208.92,9.42,28.62,55.36,29.34,28.47,80.11,32.43,30.9985,19.84,31.06,30.84,34.42,71.49,66.2,27.48,75.84,34.95,52.86,42.3,12.92,26.76,51.83,59.43,101.37,81.69,36.05,13.08,48.76,47.56,702.35,37.28,35.81,84.1,31.08,35.26,82.54,25.31,87.68,19.4,45.53,33.86,41.94,93.6,67.21,52.94,59.91,72.4,32.7,119.98,57.94,158.65,61.15,109.36,27.57,109.61,113.78,65.35,34.43,128.04,53.83,212.85,8.01,36.71,49.11,44.7,170.75,46.23,85.04,123.95,31.85,75.83,32.81,57.39,76.95,29.695,52.52,16.59,21.9,181.45,67.16,105.0,71.94,88.1,82.33,67.43,34.39,48.65,176.04,51.93,108.54,81.56,28.3,58.26,36.03,48.89,77.0,20.8,64.94,24.16,35.01,39.0,53.02,146.88,40.5,69.69,71.81,47.16,40.0734,80.64,55.55,52.3,76.29,86.35,55.64,24.63,24.24,60.4,35.7,25.72,13.8675,31.1,24.51,62.73,86.46,58.54,27.06,73.715,83.74,50.7,32.82,92.89,41.415,68.51,41.3857,65.55,40.65,46.98,86.76,59.87,44.53,83.53,79.39,52.32,92.1,49.62,53.24,43.79,37.13,122.0,38.7,38.05,79.09,14.6,30.75,64.41,129.37,70.62,30.93,31.1,36.55,89.3,41.65,33.76,27.39,64.15,74.46,24.21,31.7
2013-04-30,41.44,16.9,83.88,63.2542,46.05,54.12,36.92,81.44,45.08,43.99,33.94,67.34,171.77,39.38,36.25,51.43,13.86,57.44,54.44,105.73,41.42,31.11,47.54,42.45,43.91,61.25,33.12,30.82,49.26,98.0,14.51,2.82,40.71,155.68,104.21,74.53,83.99,253.81,53.4,80.86,72.92,60.35,18.8575,73.88,84.76,86.96,37.76,72.77,25.5,14.96,133.04,31.96,41.45,41.88,68.41,72.96,409.09,91.41,12.31,69.87,30.77,25.99,94.3,51.5533,35.25,218.93,28.22,266.5,22.06,106.32,7.49,39.085,109.43,46.66,26.97,35.37,44.22,84.67,89.14,24.22,37.53,45.78,77.0,34.51,13.8,59.035,48.385,37.302,31.945,19.54,59.39,100.74,66.17,48.91,59.705,86.25,36.25,20.65,60.86,363.19,106.39,29.94,23.1,24.68,57.78,34.025,62.92,110.4,60.45,108.43,46.41,41.11,20.92,24.59,44.87,37.57,32.4,62.16,58.18,122.01,86.13,61.68,17.14,89.3,43.74,52.09,56.33,26.08,62.84,78.82,70.89,39.19,70.52,47.56,68.98,48.83,17.64,51.63,72.88,75.2,59.325,55.06,17.61,52.39,84.62,63.65,61.2,53.8,69.35,66.65,55.51,60.58,214.1,58.06,75.12,59.37,157.05,10.29,61.41,71.23,31.895,37.51,35.93,55.84,43.58,13.71,49.05,27.769000000000002,36.39,30.43,94.01,46.6,76.43,42.05,45.555,17.03,34.87,24.31,56.98,52.7066,60.7,117.01,54.3,73.96,22.29,22.72,50.64,50.42,14.5,30.84,412.6973,76.33,23.2,37.99,35.08,146.07,12.495,246.47,42.77,47.37,7.17,12.54,39.89,74.97,53.3,73.35,72.18,28.09,52.9,54.65,20.365,73.54,58.62,27.74,20.635,46.2,45.2,18.27,89.16,74.11,202.54,43.98,77.19,64.69,22.15,23.95,59.64,46.98,13.84,53.8,37.86,164.0965,57.85,64.56,31.74,71.07,33.6335,50.48,85.23,16.55,49.01,56.59,65.04,9.97,23.78,54.25,103.19,39.1,46.04,42.33,56.94,17.19,47.06,109.07,44.67,50.41,32.24,40.4118,93.36,24.08,81.25,55.38,99.09,34.01,26.755,38.42,46.22,30.89,13.7,60.7,44.6,55.293,68.73,70.05,43.06,19.44,45.66,102.14,36.42,105.82,60.85,31.45,46.68,38.99,14.12,110.88,71.94,100.99,38.01,104.71,18.8,36.51,106.82,61.59,39.18,47.0,32.67,22.15,33.1,57.2,100.2,208.96,9.42,29.11,56.645,31.01,29.48,82.03,32.4,30.8671,21.79,30.73,31.8,34.62,75.74,65.22,27.87,77.42,34.89,53.92,43.62,13.77,26.34,51.36,59.77,107.32,89.26,36.41,13.16,49.78,48.44,695.99,37.95,36.61,82.47,29.07,36.1,76.77,25.29,88.57,20.99,47.56,30.65,41.95,95.59,67.88,54.35,60.9,73.57,33.38,119.41,60.42,165.0,60.95,115.41,27.48,114.3,122.23,61.6,36.53,134.99,56.26,215.14,8.49,32.82,47.93,41.42,181.58,48.02,84.78,119.65,33.035,73.52,34.08,61.38,78.99,30.42,54.2,16.96,22.12,183.11,68.73,103.23,74.43,90.7,86.2,66.58,35.57,48.23,178.07,54.11,108.32,82.85,29.25,58.47,36.7,49.35,74.81,22.07,65.58,24.3,34.86,37.46,51.6,146.8,43.55,70.56,73.68,48.77,41.38,80.68,58.86,52.58,72.5,85.41,53.585,24.63,23.62,59.78,36.21,25.75,14.27,32.3,24.58,66.59,87.65,59.93,27.89,73.98,85.84,52.61,33.28,91.29,42.115,65.14,42.4333,63.99,40.32,49.88,87.56,61.29,46.07,76.82,79.63,53.91,92.4,49.51,55.28,44.94,37.98,114.28,40.98,38.13,77.72,14.81,30.51,60.08,137.3,73.18,31.79,31.14,37.91,88.99,42.35,34.32,27.75,68.12,76.45,24.62,33.02
2013-05-07,42.4,16.98,85.58,65.5225,44.91,54.98,36.06,79.05,45.602,45.78,34.34,68.65,173.49,39.54,36.1,51.07,13.96,59.07,55.38,107.22,44.6,31.31,48.06,43.99,45.15,62.18,35.63,33.735,49.31,96.35,14.72,3.54,41.19,156.73,104.46,77.35,83.55,257.73,58.04,74.82,74.71,63.71,19.3525,76.7,86.74,90.03,38.945,74.28,25.92,14.94,133.0,32.54,43.02,41.98,70.24,74.18,418.95,94.79,12.9,68.58,31.51,26.12,97.47,52.9299,35.67,212.55,28.41,275.55,22.745,109.9,7.69,40.305,110.3,48.11,27.77,35.75,46.45,89.79,91.39,24.44,39.13,47.65,78.4,35.54,13.89,60.8325,47.48,37.438,31.605,19.13,61.56,109.69,66.93,49.31,60.165,85.96,37.86,21.525,60.48,361.09,112.98,29.28,24.06,24.38,59.08,33.91,65.35,113.53,62.84,109.71,46.6,42.42,20.38,25.33,45.28,37.06,32.44,64.12,58.54,123.04,83.47,60.93,18.08,91.73,45.97,53.44,57.78,26.75,66.07,77.87,70.47,40.78,68.87,49.5,72.2,49.49,18.35,53.16,71.98,73.7,58.78,58.12,18.41,53.94,87.17,63.06,62.99,51.94,70.31,69.24,56.56,67.845,217.6,57.22,75.77,61.12,157.75,10.91,63.46,68.77,31.995,35.51,38.73,57.07,44.19,14.19,48.64,26.889,40.67,31.55,99.52,44.1,76.96,42.63,44.0,17.51,35.69,24.71,60.43,53.8166,60.65,116.64,56.63,75.2,22.68,22.82,53.13,50.76,14.87,31.65,429.0436,78.29,23.575,39.04,35.54,149.32,13.07,253.16,43.42,47.46,7.46,12.72,41.18,75.62,53.94,75.07,72.26,29.29,54.0,57.54,20.05,76.9,62.6,27.96,20.845,47.2,45.955,18.57,89.26,76.88,203.63,42.95,79.46,66.29,21.88,24.15,60.56,46.52,14.47,55.35,38.91,163.3565,57.16,66.75,32.61,73.04,34.711999999999996,51.1,85.53,16.8,49.14,58.59,63.9,10.23,24.87,54.46,104.51,39.26,46.82,42.7,58.41,17.495,47.66,109.86,45.64,52.63,33.07,41.3725,93.25,25.04,83.86,54.17,102.88,34.24,26.55,40.29,46.05,32.0,14.23,63.28,46.5,55.126000000000005,71.24,70.65,43.54,21.58,45.89,102.29,37.16,108.63,64.12,31.41,48.1,40.78,14.71,115.22,73.13,108.48,39.06,108.01,19.05,36.47,107.86,62.22,40.72,45.27,34.33,23.27,33.31,56.79,102.3,220.76,9.97,29.69,58.405,31.66,30.22,81.72,32.45,29.4643,23.14,30.19,31.955,36.27,77.21,68.55,27.39,78.41,35.56,54.2,45.06,13.65,26.78,47.87,61.85,110.78,89.25,37.08,13.675,52.47,47.59,725.05,38.54,35.81,83.34,29.03,37.26,77.94,25.42,93.14,22.87,49.09,31.71,42.98,93.61,68.76,55.36,61.41,76.61,32.4,116.29,65.68,166.89,64.48,117.93,29.09,114.08,137.79,63.97,37.52,135.73,58.35,262.19,8.73,33.48,50.65,42.31,185.01,47.8,87.91,121.04,33.25,75.4,34.98,63.46,79.31,31.095,53.7,17.44,22.84,189.28,69.89,103.87,76.89,90.83,88.62,68.91,35.6,47.27,178.87,54.61,110.89,83.33,30.29,59.68,42.32,50.15,78.68,22.68,66.39,25.1,34.4,37.52,50.72,150.13,44.73,70.55,75.45,50.03,42.3534,83.91,58.28,55.01,73.55,86.02,56.585,24.6,23.93,61.52,37.04,26.9,14.465,33.38,24.85,66.87,90.41,60.5,27.97,76.86,88.66,57.72,33.15,93.87,44.9475,66.03,42.8452,67.73,39.11,54.47,86.82,60.85,48.25,76.40100000000001,80.65,52.92,94.47,49.19,58.83,44.21,38.4,122.65,41.42,36.98,78.83,15.74,31.38,63.82,138.84,72.84,31.17,32.1,38.135,91.15,43.39,35.08,27.68,68.62,77.3,25.96,32.88
2013-05-14,43.97,18.1,86.12,63.4085,45.35,54.96,37.05,80.55,44.04,46.34,34.06,70.81,177.23,39.42,35.87,48.87,13.13,59.39,54.56,121.68,46.08,32.73,48.64,45.2,46.9,64.86,36.28,32.735,50.36,107.86,14.79,4.26,42.69,164.71,107.94,80.86,83.73,268.33,56.71,76.36,78.0,65.92,19.9275,83.03,88.77,91.59,40.41,77.4,25.68,15.14,136.64,33.7,43.51,42.44,71.51,76.85,417.56,96.11,13.34,70.49,32.26,26.74,101.77,55.8033,35.975,229.84,29.95,284.45,22.83,112.67,8.7,41.67,110.5,50.09,27.14,35.69,46.26,87.55,92.62,24.51,39.99,50.03,79.77,35.2,14.09,65.085,47.845,38.564,32.105,20.76,56.87,113.78,67.88,50.22,61.675,88.11,39.04,21.665,63.71,375.65,114.8,28.61,25.745,24.13,59.6,34.25,65.75,114.97,63.06,111.39,47.64,44.98,21.27,25.76,45.14,37.74,31.195,65.8,60.07,125.0,82.51,60.46,18.25,93.77,46.58,52.79,59.87,27.6,67.47,78.32,70.57,38.84,65.45,49.16,75.43,49.3,18.43,53.76,70.68,72.08,65.455,59.45,22.41,56.27,87.97,60.47,63.68,49.39,71.8,67.44,59.0,68.335,229.02,59.22,76.53,60.93,164.76,11.522,65.09,68.08,35.785,35.0,38.71,60.762,43.84,14.27,51.87,27.07,42.56,31.57,100.68,42.75,78.86,43.97,44.9,17.91,36.35,24.67,61.84,54.9533,62.9,116.7,56.55,76.64,23.01,22.81,56.25,50.63,15.53,31.55,443.9936,78.9,23.635,40.88,35.5,154.52,12.995,261.95,44.2,47.51,7.69,12.71,40.81,76.0,53.46,77.32,72.22,30.59,54.15,58.47,21.36,79.16,62.12,27.93,21.445,49.29,47.705,18.48,89.83,79.49,203.21,44.385,81.44,70.74,24.49,23.84,59.11,48.27,14.94,57.23,39.32,162.5765,57.87,69.38,34.48,72.66,35.7173,51.37,86.97,17.1,50.23,61.24,65.28,10.55,24.77,54.45,105.06,39.98,48.07,42.52,61.34,17.4,49.19,116.34,46.0,50.7,33.93,43.0196,95.27,24.88,84.27,55.87,102.87,35.72,26.02,42.78,47.52,31.85,13.98,64.64,47.39,56.968,73.01,70.34,43.96,22.17,46.58,101.2,37.4,115.12,66.68,31.18,49.92,42.76,15.86,119.53,74.74,108.0,40.53,110.59,18.8066,37.06,107.65,61.64,38.925,46.65,35.38,24.27,33.53,56.89,103.99,226.71,10.65,30.1,58.805,30.76,30.92,80.19,32.51,33.4243,23.77,29.09,32.955,34.65,78.96,68.04,27.67,80.05,35.78,56.67,45.34,14.45,27.9,48.6,63.36,111.89,91.03,38.2,13.6,52.91,46.9,791.1389999999999,38.67,34.75,83.5,29.4,37.87,79.47,26.09,96.68,24.25,49.89,32.4,43.37,94.96,70.17,57.0,59.38,78.405,31.88,120.38,66.6,164.64,64.08,119.41,29.41,114.28,139.95,65.32,37.88,135.88,58.26,282.8,9.0,34.76,52.72,43.88,186.55,51.17,89.99,122.31,32.865,75.96,33.9,64.64,80.85,31.76,53.0,18.75,23.19,193.54,70.03,104.53,76.86,90.88,91.49,68.14,35.39,46.26,179.23,55.6,110.76,82.3,30.86,63.59,40.85,50.13,80.99,23.68,69.21,24.52,34.75,37.23,51.09,150.08,44.93,69.44,76.68,51.45,43.26,84.71,59.1,58.01,76.65,87.9,57.325,24.93,23.98,61.27,36.51,27.32,15.1525,33.29,26.26,69.02,93.51,61.73,28.71,78.47,88.4,59.52,33.89,95.93,45.08,70.23,43.981,68.7,39.01,54.73,86.99,60.7,48.97,81.01,80.53,53.17,97.75,49.59,59.21,43.05,38.76,129.0,41.5,36.63,78.78,16.37,32.26,63.83,142.14,70.95,30.03,32.71,38.35,91.11,42.8,35.68,28.31,70.15,80.89,27.06,33.08
2013-05-21,46.75,17.95,87.18,62.8085,46.54,54.65,37.72,82.9,44.02,46.56,34.71,71.03,180.88,37.48,36.15,49.36,13.0,60.27,55.84,130.2,44.96,33.2,50.6,45.21,47.28,66.94,38.16,29.27,49.08,102.67,14.67,4.02,43.69,167.21,104.24,81.53,84.64,268.86,63.28,75.35,78.1,66.18,19.82,84.36,91.37,94.86,40.5,77.04,26.28,15.57,141.46,35.09,44.29,42.69,75.11,77.33,427.84,98.75,13.44,73.04,32.72,25.64,101.01,55.0766,35.895,231.33,30.09,291.69,23.145,112.7,9.23,41.975,114.59,51.66,27.65,35.65,47.96,88.1,90.01,25.08,40.81,51.03,76.88,33.81,14.72,61.75,48.815,37.705999999999996,31.395,20.85,59.87,114.0,67.6,48.4,61.58,86.2,39.65,21.115,64.32,377.43,118.83,28.81,25.385,24.37,62.11,35.555,66.76,110.99,64.31,113.48,46.05,46.33,24.01,26.14,45.89,37.23,32.305,66.37,59.51,125.94,82.7,60.69,18.13,87.59,48.86,54.47,61.39,26.31,65.83,80.0,70.66,39.93,64.07,49.38,77.87,48.28,18.56,53.65,71.51,71.39,63.305,60.17,21.97,54.95,89.05,60.87,62.67,48.66,71.12,73.15,58.78,67.14,224.2,60.75,81.0,61.31,170.47,11.47,68.69,70.3,33.0,35.01,38.71,58.01,44.95,14.95,51.74,25.66,43.42,31.98,102.17,43.87,82.66,45.29,45.0,18.3,36.3,24.51,65.99,57.2966,62.88,117.42,58.45,77.98,23.66,22.86,56.47,49.36,16.19,33.4,453.9385,82.64,23.7,41.67,36.67,160.73,14.8,267.34,44.83,48.46,7.69,12.7225,37.66,78.98,55.28,78.71,69.61,31.02,56.0,59.19,21.27,80.15,64.7,29.64,21.305,50.17,48.075,18.51,88.45,79.52,208.65,42.78,82.32,72.58,22.26,24.15,57.89,47.75,14.55,58.14,38.54,161.9598,58.19,71.16,34.44,75.91,35.8743,55.05,88.59,17.64,53.02,60.71,65.43,10.86,24.19,56.06,101.91,41.09,48.28,42.34,61.23,17.415,52.35,113.78,46.66,51.95,33.8,41.6372,100.63,25.39,87.37,55.14,106.99,35.24,26.22,42.45,47.92,31.57,14.31,65.85,49.43,58.485,74.29,70.65,43.48,22.05,46.65,102.14,36.67,118.41,68.62,31.005,52.35,42.82,15.54,115.63,74.34,111.98,41.4,112.01,18.81,36.92,106.59,60.28,41.44,47.33,36.09,25.12,34.85,57.77,106.25,223.39,11.23,31.23,60.57,32.0,31.19,80.49,31.94,33.87,24.66,29.6,32.615,34.86,81.46,70.43,28.18,79.98,36.63,57.96,47.1,14.92,28.11,49.34,63.0,112.21,93.06,38.195,14.24,54.63,47.36,825.96,39.23,34.77,82.63,28.78,38.14,78.8,26.13,100.96,23.05,50.39,32.54,44.77,94.4,72.2,57.88,60.09,79.47,31.82,118.65,68.05,167.72,65.42,119.49,30.06,115.91,138.97,65.76,36.89,131.31,57.86,259.96,9.16,35.77,51.86,45.17,189.56,50.08,90.69,124.8,33.085,78.61,35.09,66.76,80.69,32.125,53.49,19.17,23.84,189.95,71.62,102.11,77.08,94.21,92.28,68.86,35.77,46.44,180.23,55.57,111.89,83.82,32.15,65.09,41.52,51.89,81.84,23.68,69.24,24.025,35.08,36.94,52.57,149.42,45.96,71.26,78.38,51.72,43.4467,87.35,59.6,62.34,78.62,83.63,57.18,25.26,24.01,60.47,36.6,28.09,16.075,33.35,26.82,66.41,94.88,62.87,27.96,79.23,88.78,57.43,35.29,97.55,45.3875,69.88,44.3214,69.58,41.21,54.97,87.71,60.41,48.36,79.47,82.93,52.07,98.08,50.11,60.72,43.5,40.68,130.97,42.75,37.75,77.39,16.61,32.6,61.32,142.43,70.55,30.27,32.05,39.47,92.8,42.31,36.08,28.7,70.18,81.01,27.57,33.04
2013-05-28,46.43,18.12,83.63,63.0627,45.39,54.37,38.56,83.09,42.91,45.48,34.14,70.49,183.03,37.07,34.38,46.56,12.42,60.89,55.11,124.77,45.17,31.22,49.97,44.81,46.56,67.75,36.45,28.095,48.82,101.19,14.87,4.05,43.39,166.49,106.2,82.52,81.5,267.29,62.16,74.87,78.72,66.03,19.52,82.39,91.46,94.71,39.325,72.22,25.77,15.75,136.58,34.44,44.37,41.6,76.16,75.59,418.95,100.11,13.35,72.31,33.14,26.73,101.92,54.9366,35.75,240.86,30.09,288.32,22.25,112.28,9.22,41.345,111.15,51.79,27.65,34.98,47.28,86.19,89.51,23.74,40.73,51.3,73.33,33.0,14.85,62.295,47.725,37.775999999999996,31.5,22.16,57.87,114.1,69.07,48.09,61.63,87.1,39.53,20.91,65.49,370.61,117.27,27.52,25.615,23.43,61.81,36.245,66.79,110.94,62.84,114.83,45.85,41.8,23.89,25.3,45.17,37.07,31.87,64.53,60.21,126.43,83.16,57.73,18.72,86.34,47.67,54.48,62.76,25.69,66.69,80.8,70.94,40.14,62.04,50.56,79.19,48.58,17.27,53.33,67.69,67.75,63.74,58.23,23.26,55.53,87.06,58.56,61.66,47.42,71.05,71.88,57.66,65.56,210.1,59.41,80.83,63.6,163.54,11.76,68.67,69.5,32.595,32.04,39.59,58.97,43.08,15.28,52.1,24.1,43.26,30.89,96.53,39.86,83.67,45.8,44.695,18.43,34.1,24.67,64.26,56.4066,64.48,112.46,57.51,77.87,23.6,21.1,56.18,49.11,15.76,33.96,441.0756,81.89,23.44,40.52,35.5,160.7,14.92,259.84,43.37,46.72,7.62,12.535,38.31,71.91,49.56,79.82,68.52,30.63,55.73,56.35,20.31,79.77,63.77,29.68,20.84,51.23,48.25,18.3,90.12,80.55,207.78,42.235,82.37,71.62,23.71,24.08,59.11,47.84,14.68,57.71,37.1,167.2132,57.37,70.46,34.49,75.38,36.1256,56.44,87.61,17.47,54.6,59.96,64.72,10.74,22.82,55.67,104.53,40.42,46.94,42.55,61.98,17.27,51.63,113.82,46.2,49.84,33.24,41.3823,100.96,25.16,85.54,54.54,107.75,35.24,25.22,42.86,47.52,31.15,14.27,67.18,49.42,57.574,70.94,66.43,43.23,22.08,45.73,101.24,36.44,116.31,67.63,31.28,51.98,43.24,15.27,116.63,73.69,109.96,40.5,111.59,18.4966,37.07,105.55,60.78,41.875,47.62,35.48,24.73,35.02,58.53,106.08,225.85,11.78,31.63,59.13,31.75,31.47,77.02,32.05,30.5985,24.7,28.87,31.64,34.93,82.1,71.49,26.17,77.61,37.71,58.84,46.15,14.53,27.56,47.14,63.79,110.75,92.65,38.26,13.87,53.97,46.06,804.33,39.7,34.02,82.43,29.01,38.01,80.86,25.96,98.3,22.79,50.28,32.03,42.44,93.36,71.03,57.7,57.41,78.665,30.06,119.34,67.87,160.82,66.52,116.16,28.88,116.22,145.24,64.07,35.71,126.55,53.39,251.45,9.23,35.18,48.64,43.58,178.47,49.77,88.54,126.33,33.115,77.62,34.65,67.75,77.39,32.13,51.42,19.77,24.34,191.9,69.51,104.52,75.4,90.43,91.42,70.01,36.21,44.89,175.44,54.4,111.08,82.11,32.34,67.15,43.11,53.47,79.87,22.86,67.91,22.9,34.98,36.18,51.88,148.26,45.37,69.51,79.22,50.69,43.12,88.28,58.58,64.3,77.96,83.22,55.975,24.86,23.82,60.29,36.2,27.8,15.8225,33.83,25.1,69.37,92.09,63.34,27.77,78.87,86.75,57.17,35.54,95.97,45.0075,68.08,43.9857,69.36,40.73,54.71,83.6,59.5,47.31,78.02,74.84,50.82,99.27,50.23,62.86,41.94,40.52,129.61,42.45,36.4,77.32,16.41,31.8,61.43,140.58,73.54,29.37,31.78,39.96,92.38,42.11,36.04,28.06,70.03,80.78,28.09,34.26
2013-06-04,45.42,17.65,81.99,64.1871,43.63,53.26,36.8,81.25,44.39,46.13,33.0,68.97,176.66,36.7,34.02,46.05,12.28,59.36,55.81,119.91,44.1,30.36,48.98,42.94,44.65,65.85,35.88,28.255,46.68,92.56,15.54,4.01,42.97,163.73,97.29,82.18,76.63,265.7,59.44,72.91,77.44,63.08,19.12,84.35,87.52,95.39,38.86,67.89,25.14,14.39,136.05,37.8,43.1,39.81,76.06,74.27,407.8,99.61,13.36,69.78,32.96,27.4,98.37,51.4233,34.24,219.74,29.9,276.28,21.68,113.42,9.15,40.19,108.96,51.23,27.61,33.53,46.49,85.92,88.79,23.05,39.97,49.11,69.85,32.36,14.99,58.885,49.52,38.804,30.15,21.72,56.5,114.95,67.52,46.19,58.87,84.22,38.61,20.46,69.17,358.42,118.21,26.63,24.54,23.11,61.26,35.21,64.92,111.83,61.68,110.66,43.53,37.8,24.36,24.74,45.4,34.76,32.41,62.41,57.49,122.96,86.27,55.66,18.09,87.15,48.31,48.64,62.4,22.92,64.35,78.69,69.45,38.82,58.8,48.55,79.21,46.91,16.21,53.28,66.49,67.15,62.48,57.25,22.72,52.59,84.52,56.49,60.92,46.27,67.47,71.11,57.15,66.08,198.03,57.14,79.17,62.35,155.94,11.46,65.59,68.24,32.7,31.59,38.49,56.13,41.84,15.78,50.92,23.52,40.37,30.85,98.38,39.07,77.32,44.32,43.155,17.92,34.81,24.11,62.67,55.6133,62.18,106.95,55.65,77.21,23.66,20.07,52.32,47.87,15.57,34.96,429.9796,76.81,23.81,40.93,34.76,161.68,15.1,256.73,41.99,44.66,7.62,12.38,39.02,67.6,47.01,76.63,68.25,29.73,54.87,54.07,20.74,77.74,62.81,28.8,19.9,50.08,47.88,17.31,88.9,80.18,206.19,41.845,80.22,69.89,21.12,25.36,57.78,45.51,14.19,57.06,34.5,166.1965,56.09,70.04,33.3,71.75,35.2879,56.9,84.1,17.39,54.04,59.39,63.05,10.67,21.83,56.98,97.58,37.93,46.12,41.42,61.57,16.975,51.85,108.85,45.25,51.94,31.38,37.2941,99.81,24.0,85.71,52.5,105.07,34.8,24.53,40.99,47.98,29.91,13.92,67.68,48.39,56.821999999999996,67.09,62.69,40.41,20.02,44.81,98.37,37.09,112.31,65.27,29.57,51.42,43.96,15.01,107.0,69.47,106.98,39.93,110.02,19.8666,36.21,102.11,61.8,40.315,49.44,34.94,25.47,34.99,57.41,104.29,215.68,11.71,29.87,57.75,31.41,30.84,76.49,34.45,32.1871,23.75,28.27,31.39,33.65,82.42,69.9,25.19,77.0,37.29,57.81,45.16,14.47,26.9,44.14,61.93,109.53,94.26,37.1,13.77,53.83,44.65,798.69,38.99,32.84,81.63,27.66,37.64,77.37,25.02,98.44,20.56,48.77,32.03,39.42,91.89,71.09,57.77,55.88,76.78,29.7,114.62,69.07,151.54,65.18,112.54,27.14,116.66,140.0,63.71,34.37,128.22,50.79,232.88,8.98,34.01,46.18,42.51,176.32,47.53,87.49,123.96,32.325,74.39,34.15,66.35,75.46,31.665,50.32,19.58,24.56,182.6,67.85,102.64,72.85,86.13,91.61,67.1,36.56,43.95,165.66,54.62,108.02,80.12,32.02,66.15,44.74,52.11,78.64,23.6,66.7,21.9,34.18,35.67,50.38,147.76,44.83,71.51,78.84,50.51,42.18,88.27,58.57,62.19,75.23,83.82,54.31,25.2,23.46,58.34,36.64,26.46,15.385,32.2,24.49,68.63,87.11,62.36,28.18,77.86,85.96,52.9,35.26,94.28,45.05,66.84,44.4381,67.04,38.96,52.09,80.04,58.85,45.86,78.36,70.24,48.84,96.59,48.03,63.42,40.82,40.44,122.63,41.77,34.46,75.94,16.36,29.23,57.83,136.84,70.87,28.86,31.37,40.69,90.79,41.91,35.96,27.86,68.86,77.6,27.15,32.4
2013-06-11,44.4,16.92,82.69,62.5142,43.59,54.81,36.83,80.41,43.12,45.02,33.12,68.11,177.42,35.33,33.83,45.36,12.31,61.78,56.41,125.09,44.92,28.88,50.05,43.78,43.84,62.84,34.77,28.135,47.25,93.03,15.19,3.96,42.54,165.91,97.93,82.52,75.82,274.78,57.01,72.85,78.38,65.2,19.165,84.4,86.2,94.9,38.375,66.31,24.69,14.2,131.08,36.29,42.97,39.86,76.52,74.94,415.0,101.75,13.12,69.77,33.31,27.89,98.31,49.0366,34.985,223.03,29.49,276.2,21.45,113.51,9.44,41.805,106.9,49.95,28.61,34.03,46.99,83.52,89.43,22.9,41.81,47.09,69.35,32.34,14.77,59.375,49.07,37.552,30.44,21.3,56.5,112.46,69.95,45.51,58.62,84.47,38.12,20.08,72.39,364.75,117.43,26.96,24.775,23.12,61.46,35.26,64.88,120.96,61.91,110.02,44.05,37.59,24.07,24.77,45.4,35.49,32.215,62.79,58.67,121.45,85.95,55.33,18.52,85.24,48.26,51.67,62.55,22.32,63.8,73.87,65.68,39.17,61.09,49.83,78.25,46.66,15.64,54.23,67.0,67.21,64.705,55.26,22.6,52.05,83.7,57.15,59.98,46.8,67.75,69.4,56.43,64.555,196.47,55.12,80.4,62.16,154.04,11.53,64.56,68.66,34.145,31.2,37.84,55.84,42.11,15.51,48.48,24.03,38.62,30.32,98.04,38.57,75.34,44.58,43.33,18.34,34.58,24.09,61.57,55.0133,62.72,105.71,55.01,78.17,23.58,20.44,52.44,48.33,14.99,33.93,440.3449,77.31,23.895,41.04,34.35,163.31,14.6,255.0,42.04,44.7,7.68,12.5125,39.73,66.82,45.88,77.61,67.29,29.76,56.03,53.05,21.86,78.16,62.38,29.4,19.82,49.8,48.245,16.86,87.91,81.39,203.98,42.53,78.93,68.5,20.44,24.71,57.73,45.31,14.34,56.65,29.15,166.5232,57.07,70.1,33.62,72.25,35.2984,56.06,84.69,18.3,53.49,58.96,63.0,10.74,21.84,55.28,97.95,38.19,46.6,40.79,61.27,17.29,51.27,109.34,44.78,50.07,31.87,35.902,100.49,24.74,86.06,51.94,105.96,35.37,24.53,40.89,46.86,28.37,13.95,64.19,48.56,56.044,64.69,61.58,40.84,19.55,44.73,98.23,36.77,112.87,63.52,29.8,52.07,44.48,14.79,107.22,71.0,107.22,40.22,110.22,20.4566,36.16,104.51,57.99,39.93,47.56,34.03,26.09,34.84,56.38,102.9,213.09,12.81,30.77,57.76,31.65,32.12,78.87,32.81,30.6371,22.78,28.17,31.075,33.93,82.97,69.17,27.12,76.51,38.17,57.49,43.63,14.17,26.79,43.83,62.2,110.54,91.25,36.74,13.86,53.34,44.58,813.42,39.07,32.4,82.53,28.42,38.01,78.12,24.65,98.18,20.11,48.92,32.28,37.46,91.23,71.75,58.65,56.66,75.95,28.98,117.15,70.93,148.99,63.96,111.2,26.76,114.07,143.13,61.66,33.51,127.28,50.55,248.88,9.22,33.41,46.24,42.04,173.78,46.8,85.31,121.3,31.92,74.71,33.72,66.54,74.47,32.71,49.15,19.72,23.85,181.44,67.39,100.51,71.44,86.67,90.31,65.83,36.46,44.26,162.22,54.45,106.45,79.54,31.7,66.12,43.94,52.16,79.54,21.34,66.83,22.01,34.13,35.76,50.58,147.51,44.89,70.0,77.07,49.89,42.9134,85.42,58.45,63.86,73.95,82.08,57.18,25.5,23.19,56.89,35.26,26.65,14.9,32.45,23.82,70.14,84.13,63.93,28.21,77.41,85.65,49.84,35.41,93.68,44.915,68.61,44.7762,67.02,38.48,52.77,79.85,59.37,45.69,81.4,69.95,50.18,97.18,49.54,64.54,40.89,40.66,124.1,40.26,34.08,75.25,16.66,28.69,57.93,134.78,72.62,28.98,30.86,39.16,90.46,41.0,36.4,27.21,71.76,77.39,27.84,31.7
2013-06-18,44.8,17.22,83.69,61.6814,43.54,55.86,37.51,82.93,43.36,46.66,33.83,69.6,179.84,35.13,34.56,45.9,12.17,62.65,57.77,125.67,45.14,28.88,51.82,45.36,42.84,63.99,36.25,28.14,47.67,92.39,15.97,4.09,42.36,170.04,101.5,83.39,77.29,281.76,57.11,76.51,79.64,65.63,19.635,87.12,87.0,96.58,39.64,68.09,24.63,14.59,134.9,38.75,44.11,41.16,74.98,78.37,425.33,104.08,13.27,70.88,33.38,28.06,100.4,50.3066,35.32,210.8,29.77,276.49,21.595,115.17,9.54,43.36,111.2,50.01,28.635,34.5,48.76,84.55,90.16,23.05,43.37,48.75,71.33,34.31,15.02,60.12,49.505,37.726,30.905,21.25,57.33,117.95,69.66,47.1,59.7,85.85,37.76,20.195,77.28,372.66,117.37,27.57,25.99,23.67,62.1,36.085,64.7,121.69,62.1,112.085,45.73,38.25,24.82,25.29,46.22,36.24,32.0225,62.2,59.91,121.52,87.81,57.0,18.97,85.0,47.89,52.29,62.39,24.38,65.29,77.845,70.01,39.09,61.53,50.6,80.62,47.43,16.1,53.13,67.59,68.23,64.75,55.3,23.03,52.565,86.73,58.95,61.3,47.71,69.72,73.25,57.34,67.51,191.33,56.61,83.66,62.94,155.62,12.09,65.84,69.17,35.08,31.15,38.99,60.64,43.7,15.65,46.9,24.21,41.91,29.52,99.48,38.25,76.06,44.33,44.32,18.4,35.41,26.485,63.28,55.3233,64.7,104.85,57.98,78.85,24.33,21.07,51.94,49.91,15.19,34.01,450.7603,79.64,24.45,42.34,35.76,164.15,14.97,255.87,44.07,44.745,7.62,13.085,38.83,68.15,45.98,77.19,67.52,30.35,57.64,54.19,21.04,80.85,64.04,29.22,19.595,50.09,49.075,17.22,89.61,83.6,204.87,45.245,79.95,71.69,21.41,25.465,58.7,45.97,14.79,57.61,28.83,169.8698,58.74,71.33,34.54,72.7,35.3403,57.78,86.36,19.13,54.11,59.64,64.92,10.5,22.27,56.39,99.44,38.57,48.21,40.93,61.63,17.76,52.44,112.18,45.17,52.32,32.78,38.549,100.78,26.385,86.8,52.35,108.85,35.87,25.04,41.46,47.68,27.36,13.86,68.81,49.32,58.441,65.4,62.7,40.82,21.55,45.05,99.75,38.04,114.62,62.61,30.5,52.92,45.41,15.1,114.71,73.36,109.73,40.46,112.97,19.8766,36.15,105.63,58.98,39.46,47.75,36.05,26.32,34.98,57.35,104.13,216.72,13.75,31.87,60.69,31.55,33.19,81.59,32.59,32.69,23.94,29.38,31.075,35.08,83.93,71.49,26.79,77.03,39.39,58.36,44.87,14.4,27.0,44.57,63.82,113.09,92.43,37.8,14.29,54.51,45.73,834.82,39.08,33.19,82.57,29.4,38.88,79.04,25.3,98.7,21.49,49.52,34.41,38.34,92.65,71.74,59.57,56.2,78.285,29.46,121.16,72.97,152.4,64.39,126.26,27.11,119.01,154.65,62.38,34.26,130.76,51.2,242.76,9.11,34.42,46.63,43.51,178.9,47.66,88.11,124.82,32.655,79.46,34.75,68.07,75.87,33.5475,49.97,20.54,24.64,184.3,69.91,103.66,74.16,91.72,92.21,67.93,36.61,44.75,167.3,56.08,110.88,82.06,31.75,67.32,44.99,52.59,80.98,22.31,67.67,22.73,34.74,36.17,49.84,156.85,46.87,70.16,76.59,50.53,43.5134,86.18,58.48,63.85,75.62,84.09,58.805,25.88,23.25,58.89,36.12,27.18,15.015,32.42,24.5,70.07,96.6,65.68,28.7,78.975,87.43,51.65,35.35,96.17,46.0025,70.86,45.3524,67.595,38.07,54.15,83.99,60.11,45.0,78.8,71.67,51.55,101.9,50.9,64.67,41.6,40.84,129.61,40.85,33.24,75.73,17.13,28.24,59.61,139.3,72.38,29.36,31.69,40.195,91.93,41.78,37.96,27.66,72.22,79.79,27.31,31.18
2013-06-25,42.48,16.46,81.39,57.5185,42.63,53.55,35.11,79.66,44.37,44.52,33.17,68.84,174.1,34.04,33.41,43.91,11.67,62.16,56.82,121.54,43.35,28.92,49.82,42.96,41.91,62.21,35.41,25.595,46.88,88.38,15.27,4.15,40.88,156.58,96.37799999999999,79.26,72.9,272.08799999999997,53.34,71.68,79.89,63.69,18.04,82.64,85.08,94.61,38.195,63.15,23.76,13.78,135.44,37.1,42.09,40.13,73.23,74.89,421.48,98.67,12.67,69.5,33.83,26.74,98.0,45.7533,33.86,199.15,28.27,252.58,21.065,112.07,9.03,41.515,102.66,47.0,27.29,33.27,46.64,82.33,86.38,21.99,44.27,47.93,68.32,34.89,14.26,57.275,47.475,34.972,29.805,19.79,54.7,117.774,70.67,45.05,56.22,82.28,39.67,20.085,76.38,358.96,107.44,27.0,24.655,23.07,61.11,35.175,61.74,116.84,59.83,110.25,43.93,37.44,24.005,23.14,45.41,34.96,31.4,58.54,56.62,117.45,85.59,55.87,18.15,82.45,46.22,50.51,60.79,20.91,62.57,75.46,67.38,40.03,58.22,49.78,76.7,44.98,14.89,49.07,65.3,66.12,60.975,53.07,21.78,51.64,84.41,57.03,58.59,46.59,64.74,70.33,54.83,65.075,178.55,56.4,80.55,61.26,156.5,11.93,63.15,69.16,33.595,31.08,37.18,57.12,41.69,14.97,45.49,24.25,38.02,27.26,97.19,36.93,68.5,43.01,43.21,17.88,34.57,25.74,59.14,52.8,61.72,98.57,55.76,76.42,23.11,19.42,49.78,48.33,14.21,31.82,433.5331,77.3,23.005,41.06,34.95,153.06,14.71,255.45,41.15,43.98,7.78,12.645,36.62,64.39,43.93,74.14,63.65,29.18,54.68,51.54,19.63,77.65,63.66,27.89,19.05,48.12,47.29,16.5,86.4,84.41,194.98,45.13,75.53,73.66,19.79,23.88,58.81,43.31,14.32,54.11,26.36,167.2332,56.41,67.82,31.5,69.23,33.4869,55.4,85.35,18.41,52.08,58.67,63.18,10.72,20.91,55.5,95.6,37.16,44.36,39.72,59.04,17.255,50.6,106.74,43.85,49.73,30.48,34.5392,99.26,25.65,83.2,49.22,103.67,35.54,24.38,39.51,45.17,24.98,13.35,66.46,46.58,56.458,65.1,59.38,39.35,19.06,44.36,97.52,36.81,110.7,58.43,28.62,51.83,44.82,13.7,110.23,71.17,99.69,39.29,108.24,19.0666,34.93,101.4,55.91,36.04,46.23,35.01,25.03,33.67,56.35,107.23,201.61,13.75,30.4,59.77,28.76,32.35,79.0,28.93,30.4143,24.06,27.86,30.195,33.81,80.71,67.67,26.55,72.5,37.45,57.15,43.68,14.22,25.43,41.4,61.6,111.33,88.67,37.63,14.71,51.88,44.73,809.57,37.3,32.28,80.04,27.99,36.99,76.69,24.34,94.31,19.02,47.98,32.74,36.92,86.5,72.7,56.6,53.41,73.915,29.5,118.79,71.09,150.8,59.41,123.42,26.2,114.39,148.01,61.81,33.1,124.55,48.34,220.172,9.27,32.68,45.86,42.53,170.26,47.24,83.27,120.27,31.915,79.68,33.48,65.32,71.51,32.37,48.48,21.04,23.26,175.78,66.51,100.9,72.09,85.64,87.8,65.08,35.12,43.56,156.83,53.04,108.56,80.99,31.22,64.84,42.401,50.51,76.46,21.4,64.89,22.1,33.88,35.03,48.11,156.81,45.23,69.13,72.13,49.25,43.0667,83.13,55.14,61.53,72.34,78.43,55.985,25.04,23.52,56.67,35.02,25.39,14.375,30.75,24.55,65.53,97.89,63.73,28.75,76.71,85.72,48.12,35.94,91.78,45.1175,66.6,44.8119,65.62,34.98,48.62,79.19,58.1,44.67,78.1,67.37,50.44,99.73,45.22,60.06,40.27,40.3,114.0,39.11,31.9,74.37,16.53,27.52,56.37,125.6,68.24,28.38,29.76,39.18,89.11,40.24,35.88,25.93,68.34,74.97,28.48,31.49
2013-07-02,43.09,16.43,81.47,59.7842,42.21,54.83,34.86,72.12,46.03,45.31,34.87,70.08,179.51,33.49,34.07,44.48,11.81,62.43,56.79,123.83,44.89,30.27,51.31,44.11,42.55,63.04,37.3,25.975,48.52,95.35,14.82,3.97,43.26,163.09,96.06,81.82,72.17,283.73,50.71,72.56,81.38,65.09,18.48,82.13,86.77,90.75,39.235,67.44,23.4,14.32,136.95,38.48,43.38,39.9,74.62,81.39,424.2,101.47,12.9,69.67,34.16,28.69,97.14,46.08,33.87,216.65,28.42,256.82,21.09,112.52,9.17,42.48,106.09,48.15,27.98,35.36,47.02,82.48,88.98,23.2,46.7,49.11,72.16,34.88,14.57,60.13,48.62,34.368,30.76,20.92,56.46,125.14,72.12,46.33,57.72,83.25,40.73,20.375,75.2,371.53,110.2,26.69,26.57,23.45,64.24,35.565,63.1,121.93,61.79,110.85,44.99,38.17,24.32,23.11,45.64,35.24,32.175,61.1,58.49,119.15,84.6,56.38,18.99,80.9,48.03,51.36,60.45,20.86,63.26,78.51,71.18,42.65,60.21,51.95,76.76,46.6,15.69,50.91,66.01,67.18,57.0,53.05,23.52,53.33,86.13,57.56,59.29,46.8,67.45,70.71,55.41,68.94,185.47,57.84,79.69,62.44,160.72,12.9,66.04,69.35,33.03,30.22,38.18,61.69,43.13,16.18,45.82,24.41,38.78,27.74,98.27,36.16,68.94,42.8,43.425,18.48,35.69,27.25,58.3,54.33,61.54,103.89,56.41,78.07,22.9,20.02,52.23,49.17,14.42,34.1,441.5962,83.23,23.295,42.87,35.2,150.92,15.44,253.86,42.79,45.91,8.22,13.035,36.91,66.87,46.0,77.31,67.22,30.91,56.6,54.87,19.2,77.88,64.05,28.01,19.505,49.32,48.46,17.13,89.81,82.93,191.5,44.925,77.72,73.44,22.95,23.72,62.37,45.75,14.69,55.69,27.13,167.0632,57.43,69.17,31.49,73.23,36.0314,54.62,86.57,19.13,52.8,60.72,65.11,11.4,21.57,54.85,97.04,38.28,46.52,40.37,62.36,17.96,52.47,109.99,44.5,49.79,30.89,34.3039,99.22,25.98,85.06,50.5,106.4,37.4,24.83,42.37,44.72,26.11,12.71,65.41,48.4,58.306000000000004,68.01,61.72,40.23,19.76,45.04,99.93,37.45,114.28,60.45,28.78,51.81,46.57,14.87,110.6,70.1,97.98,40.3,108.73,20.1333,35.46,98.42,53.51,34.645,46.55,34.6,24.44,33.94,57.49,113.73,205.55,14.31,30.37,61.04,30.48,33.06,80.34,29.17,31.6371,24.1,28.7,31.31,33.97,82.17,70.03,26.09,72.24,38.29,58.63,43.8,14.09,26.12,40.43,62.69,113.91,90.57,36.94,14.99,53.93,44.99,841.06,37.86,31.84,81.68,27.7,37.29,78.44,25.46,95.54,19.0,49.55,32.53,37.99,87.56,73.85,57.94,55.07,74.54,29.75,122.01,74.1,154.68,57.08,125.58,26.12,114.7,149.9,60.92,33.96,126.36,51.33,231.12,9.82,33.3,47.41,43.23,172.67,44.81,84.81,124.68,32.725,78.26,33.79,64.82,74.16,33.395,48.79,21.3,24.65,179.63,67.6,103.15,72.61,89.51,90.5,68.23,35.4,43.61,162.63,53.99,110.87,80.4,32.51,65.87,45.22,51.25,77.78,21.58,64.32,22.44,34.03,35.53,48.07,151.67,46.2,69.56,72.5,50.24,43.96,84.99,56.6,60.23,73.99,79.82,57.95,26.33,24.65,59.52,35.13,25.62,15.005,31.49,26.05,68.21,97.48,65.27,29.84,77.6,86.61,49.99,36.3,93.8,46.31,66.65,46.0905,67.54,33.54,47.79,84.51,60.47,44.92,79.52,69.86,50.63,100.36,44.46,63.18,40.42,41.22,116.35,40.4,32.98,74.71,16.8,28.54,57.07,126.18,67.49,28.13,30.48,39.65,90.64,41.1,36.92,27.5,70.1,76.08,29.54,29.7
2013-07-09,44.6,17.36,83.2,60.3357,43.32,55.91,34.74,74.1,47.26,46.26,35.72,71.04,183.78,34.39,34.36,44.57,12.03,63.29,58.52,125.71,45.78,30.43,52.41,44.49,43.56,64.69,38.88,27.965,50.55,95.73,15.66,4.05,44.54,166.41,98.33,84.92,72.86,291.53,52.98,75.97,84.09,65.37,18.95,81.46,88.36,95.96,40.875,68.29,23.73,14.89,137.31,37.58,45.0,41.46,77.61,85.5,434.56,104.68,13.53,71.45,35.05,29.73,98.76,46.4866,34.83,219.25799999999998,29.34,263.38,21.84,115.8,9.15,43.365,107.31,50.21,29.07,35.56,48.01,85.33,92.38,23.51,47.53,51.29,72.69,35.16,15.17,62.325,47.53,36.24,31.215,21.14,58.39,125.67,74.65,48.1,58.98,85.13,42.54,21.335,76.7,386.33,112.62,27.45,27.355,23.86,65.53,35.885,66.45,123.79,63.5,113.35,45.34,38.72,25.155,24.06,47.22,35.39,33.275,64.16,60.15,123.27,88.34,57.34,19.33,83.91,50.28,51.8,58.0,21.22,64.94,81.91,73.7,41.74,60.38,52.82,79.53,46.6,15.96,51.89,66.83,68.16,58.0,55.61,23.565,54.49,88.46,57.88,59.83,47.13,66.59,73.43,57.61,71.11,187.00400000000002,57.97,81.38,63.82,162.76,13.51,68.11,69.14,32.87,30.81,39.66,63.02,43.23,16.84,47.1,25.48,39.73,27.64,103.15,36.81,69.36,44.43,44.735,18.8,36.6,28.78,59.01,55.75,61.93,103.47,58.16,79.86,23.62,20.39,54.38,49.53,14.77,34.92,453.0726,83.63,23.865,43.94,35.17,156.94,16.4,261.75,44.31,47.23,8.459,13.4225,36.87,65.72,45.08,79.7,68.57,31.55,58.27,54.2,18.69,81.39,65.37,29.21,19.885,49.9,49.535,17.77,90.81,85.18,191.3,46.27,79.58,74.04,23.02,23.135,63.24,46.89,15.36,58.03,27.36,139.7665,59.67,71.14,32.05,76.29,36.9843,55.98,88.88,19.67,54.89,62.67,65.92,11.88,22.03,58.15,98.53,39.52,48.67,40.83,64.28,18.575,53.69,114.95,45.27,50.57,31.69,34.3235,95.86,26.29,88.57,51.79,109.57,39.44,25.515,43.81,47.5,26.1,13.1,68.97,50.37,59.358999999999995,67.85,62.96,41.74,20.0,46.38,99.99,37.8,116.01,61.66,29.04,52.88,48.78,15.44,113.42,70.3,101.18,40.84,113.35,19.9266,36.27,101.4,56.45,35.06,47.62,36.37,25.44,34.35,58.03,117.57,212.42,13.135,31.19,63.86,31.76,33.24,81.35,27.07,35.3403,25.0,29.71,31.965,34.23,85.53,73.14,27.65,74.39,38.67,61.13,44.79,14.241,26.91,42.63,64.74,116.49,89.94,38.15,15.3,54.96,45.37,897.06,38.57,32.27,82.77,28.35,38.66,79.57,26.11,98.01,19.05,50.47,33.67,38.32,89.18,76.26,58.89,56.78,78.265,29.9,126.42,78.1,155.24,58.51,130.86,27.16,117.59,153.49,59.39,34.75,126.85,51.49,235.918,10.2,33.54,48.14,44.48,177.63,43.79,88.16,128.46,33.225,79.98,34.78,67.44,74.4,34.065,50.11,22.2,26.09,183.71,70.65,104.62,76.54,91.5,92.35,70.82,36.24,44.12,161.72,55.51,114.1,80.96,34.33,68.83,45.73,51.26,80.58,21.35,66.07,22.85,35.02,35.6,50.33,159.8,46.57,71.77,75.53,51.26,45.3734,87.27,58.01,62.74,76.56,82.05,60.081,26.32,25.28,61.28,36.24,26.89,15.42,32.0,25.85,65.97,99.5,67.97,31.42,79.705,89.73,53.27,37.29,98.02,46.8,66.3,47.2571,69.08,34.28,48.89,85.52,61.5,45.29,79.99,69.02,50.96,102.19,46.45,66.2,41.37,42.7,114.29,41.24,33.53,77.03,17.21,28.73,59.05,126.59,70.18,28.85,31.34,40.15,93.34,41.96,37.6,28.54,73.0,76.88,30.46,30.98
2013-07-16,45.91,17.95,82.38,61.4564,43.81,58.28,35.7,75.29,47.485,48.52,35.71,72.3,187.96,36.16,35.99,47.23,12.77,62.52,59.18,122.84,46.24,31.13,53.27,44.72,44.42,64.7,38.19,30.08,51.0,107.04,16.575,4.43,45.13,174.11,104.05,85.4,74.71,306.87,52.62,79.04,85.35,67.16,19.255,82.03,88.24,95.5,42.14,69.32,24.33,15.1,140.33,38.87,44.06,42.32,78.27,84.98,433.71,104.23,13.92,72.83,34.84,29.14,101.9,48.3,36.265,222.85,30.35,268.35,22.39,117.2,9.47,43.605,109.5,51.83,29.37,36.76,49.22,88.17,93.22,23.88,48.04,52.68,76.35,36.25,15.72,67.5275,49.39,36.234,31.8,21.75,60.23,123.82,74.95,48.98,58.48,86.84,40.86,21.995,76.29,379.13,115.99,28.12,27.7,24.51,66.68,34.79,67.85,125.07,64.95,116.53,46.1,41.84,25.71,24.64,47.06,36.27,35.505,66.48,60.89,124.12,86.3,59.44,19.29,83.96,49.64,53.9,60.14,21.7,65.03,84.33,76.23,44.64,63.87,53.17,80.17,47.31,16.71,50.34,69.56,70.49,58.98,56.19,24.19,56.81,91.32,59.74,61.05,49.09,66.78,73.59,57.21,72.28,200.15,58.74,81.1,64.93,166.61,13.21,66.5,71.02,33.205,31.47,40.62,64.5,43.68,16.6,47.08,26.32,41.12,28.26,103.51,38.33,80.43,44.7,45.515,18.86,36.41,29.04,61.17,55.18,61.58,105.69,56.62,83.01,23.43,21.32,57.14,51.15,15.02,36.18,460.2638,84.19,23.905,44.67,36.43,160.24,16.51,262.68,43.63,47.16,8.26,13.1875,38.86,67.8,46.31,80.22,70.74,31.8,60.02,55.07,19.7,82.03,64.34,29.82,20.705,51.8,51.0675,18.07,91.92,85.16,193.85,47.78,79.57,73.89,23.31,24.25,64.88,48.39,15.64,58.17,28.72,140.7099,60.17,71.46,31.94,75.48,36.7644,57.5,90.4,20.55,55.01,62.02,66.31,11.55,22.51,59.48,100.19,39.75,47.63,40.23,62.61,19.065,52.94,113.78,45.66,51.81,31.79,34.7843,97.28,25.62,90.25,51.0,112.6,40.12,26.6,43.79,49.51,26.96,13.4,69.26,49.75,58.979,67.89,64.48,41.49,20.57,46.33,100.88,39.61,118.3,60.33,29.865,53.52,48.06,15.7,117.04,72.05,103.76,41.63,114.34,20.21,37.23,101.58,54.12,34.965,48.23,36.19,26.38,36.27,59.32,117.59,213.37,13.38,32.105,63.07,31.4,33.78,84.96,28.45,37.2114,26.16,30.64,31.35,33.84,87.21,72.64,28.79,76.16,40.07,60.75,44.76,14.69,26.84,43.63,66.42,116.21,89.66,39.06,15.18,56.75,46.37,902.05,39.75,33.65,84.02,28.68,38.79,80.97,25.69,99.89,19.28,51.49,33.38,39.3,89.95,74.5,60.19,58.58,77.42,30.86,127.95,77.33,160.34,57.64,128.04,27.93,116.03,152.59,61.85,35.8,129.79,52.75,262.71,9.74,34.61,49.59,44.22,180.16,45.14,91.01,128.95,33.11,77.02,35.14,69.56,78.66,34.76,51.76,21.0,27.51,182.76,70.27,107.16,76.52,93.12,93.29,72.52,37.42,45.25,163.0,57.56,115.91,84.35,33.47,68.69,46.56,52.39,81.51,22.74,68.67,23.97,35.57,35.88,51.08,139.16,47.19,72.07,78.28,52.26,45.86,87.56,58.25,60.62,77.58,83.23,60.34,27.2,25.5,61.29,37.82,27.73,14.955,31.16,25.82,68.08,98.94,66.91,31.25,79.61,85.98,50.98,37.27,99.99,47.345,69.85,47.1833,71.94,34.78,49.24,87.28,62.1,45.46,85.49,70.89,50.28,103.5,49.26,67.89,42.86,43.02,121.08,41.86,33.48,77.37,17.4,29.36,59.16,132.47,72.7,29.79,32.14,43.285,93.3,42.02,38.92,28.58,71.57,80.13,29.57,31.16
2013-07-23,46.47,18.05,82.7,59.8557,44.31,57.63,36.68,74.25,48.07,48.38,36.56,72.49,190.31,36.48,35.81,47.1,12.76,65.35,59.72,126.41,46.6,31.18,53.12,44.66,44.25,62.81,44.0,31.0,52.08,109.42,16.26,3.66,45.94,175.28,106.62,86.67,74.75,301.06,54.06,79.58,87.51,67.06,20.1,83.57,91.15,100.65,38.96,71.11,24.42,15.22,140.33,37.61,44.62,43.5,74.41,88.34,438.45,107.79,14.94,74.29,35.73,29.33,104.31,49.2,36.385,222.655,32.21,284.95,22.825,118.21,9.7,45.8,111.0,52.88,29.76,36.94,50.18,85.52,93.23,24.37,49.0,52.47,76.85,36.72,15.58,67.54,49.92,36.2,32.055,22.32,59.88,127.77,78.16,49.52,58.41,85.6,42.88,22.57,73.68,397.41,117.67,28.39,29.105,24.78,69.01,36.135,70.68,127.5,66.12,119.1,47.33,42.54,25.56,25.27,47.83,35.94,36.15,66.07,61.89,127.26,90.81,59.86,20.45,83.9,50.71,53.82,59.33,21.8,64.45,85.01,77.28,45.38,64.25,53.14,86.4,47.68,17.48,49.21,70.84,71.31,59.21,57.4,23.825,51.64,94.77,60.4,61.49,49.7,64.95,75.81,60.23,74.32,193.99,58.75,82.27,67.27,167.45,13.61,68.95,72.33,35.43,32.1,40.39,63.78,44.32,16.94,46.64,26.13,42.39,29.99,106.79,39.17,79.91,44.54,45.94,19.42,36.34,29.0,62.95,56.95,62.97,107.44,57.1,84.03,24.71,21.64,59.12,51.46,15.02,36.61,452.3519,81.68,24.705,44.87,37.5,166.26,17.16,257.73,45.58,47.83,8.46,13.34,39.1,67.85,46.27,80.19,73.43,31.57,63.26,55.96,22.95,83.27,66.85,30.96,20.705,52.42,51.655,18.35,93.59,90.59,194.98,48.185,78.97,73.77,22.85,22.75,63.77,46.88,15.78,61.02,28.42,131.5399,60.62,71.6,32.98,74.6,36.6701,59.48,92.42,21.34,56.67,61.51,67.23,12.29,23.15,60.12,98.2,39.3,48.05,40.96,63.4,19.465,53.54,113.25,46.43,53.17,31.96,34.5784,98.21,25.8,93.0,50.99,117.92,41.55,26.885,45.1,50.05,27.75,13.89,67.9,48.79,59.8,69.35,65.93,40.95,21.12,42.41,96.76,40.01,118.12,62.31,31.08,55.48,49.35,16.12,117.25,72.45,105.54,41.73,116.75,21.55,35.99,103.9,53.45,35.885,47.93,37.73,27.81,31.82,59.98,118.7,218.95,13.64,32.32,65.18,31.13,33.84,84.8,31.14,35.7514,26.89,31.15,31.595,33.3,88.76,72.74,27.94,76.87,40.91,60.11,46.5,14.21,27.43,43.75,64.51,118.54,92.03,39.2,15.55,57.25,45.52,895.79,40.4,34.47,86.2,29.42,40.41,80.95,26.09,102.72,19.34,52.71,33.72,40.27,88.78,77.14,59.92,59.97,79.565,31.61,129.28,78.93,162.94,59.49,130.94,28.31,117.0,155.1,62.3,36.67,128.31,54.38,268.34,10.42,35.84,48.79,44.13,180.14,45.61,93.04,132.0,33.525,76.69,35.0,69.71,78.69,33.83,52.78,22.48,27.03,171.8,71.88,109.68,83.57,95.61,95.01,71.99,37.34,45.62,165.98,57.86,118.72,86.85,35.16,71.2,45.31,51.5,83.89,24.25,71.05,23.92,35.51,35.81,50.63,140.95,47.95,73.25,78.41,51.94,46.8934,89.52,59.45,60.66,79.59,82.21,61.04,27.15,26.0,62.84,38.93,28.91,15.475,34.56,25.93,67.78,95.9,72.69,31.77,80.83,87.51,55.95,37.54,105.12,47.145,72.51,46.7095,73.72,35.33,49.67,88.68,61.68,45.31,86.55,71.47,50.36,99.17,51.01,67.83,43.64,44.57,131.04,42.43,34.29,78.55,17.38,29.33,59.91,131.52,75.02,30.12,32.24,45.83,95.2,42.5,39.16,28.71,70.43,84.5,29.9,30.06
2013-07-30,44.85,19.2,82.19,64.7599,44.7,58.23,36.88,73.74,47.36,48.93,36.02,72.14,193.58,36.58,36.11,46.55,12.38,62.95,60.85,135.38,45.89,30.21,53.19,43.76,47.07,61.88,42.45,30.14,50.91,117.08,16.27,3.82,46.05,179.06,111.2,88.97,72.67,302.41,55.58,77.8,84.96,67.42,20.585,80.58,88.8,105.61,38.985,69.36,24.09,18.18,137.25,36.85,44.34,42.67,75.19,86.23,444.69,105.73,14.52,73.54,35.6,29.34,102.99,48.73,35.77,216.93,31.55,282.44,22.475,115.79,10.83,47.22,108.72,51.78,29.77,36.45,50.25,83.19,91.33,23.8,49.73,52.33,71.92,36.99,14.44,72.685,49.28,39.448,31.99,23.05,59.2,123.78,76.45,48.93,60.24,86.03,42.11,21.355,74.14,407.38,118.23,28.47,28.045,24.83,69.17,38.36,70.63,125.32,64.83,116.93,46.55,43.99,25.67,24.71,47.24,35.72,36.185,70.57,60.96,125.78,88.9,59.4,21.19,82.98,50.14,54.06,58.41,19.75,64.18,81.0,73.68,43.29,56.73,53.39,84.87,46.45,16.8,49.02,71.23,71.49,58.13,54.89,26.07,51.98,93.75,60.3,63.5,49.93,65.6,79.75,60.49,72.05,180.2,57.66,85.72,64.94,164.05,14.91,68.3,69.6,35.255,31.46,40.27,47.49,42.73,17.08,48.34,37.626999999999995,41.1,28.21,103.56,39.3,87.89,43.06,46.255,19.26,36.47,32.11,60.73,56.74,65.5,106.17,53.47,85.65,24.48,21.44,61.73,51.89,15.19,36.5,445.9055,81.83,23.425,46.11,37.26,162.43,18.56,260.15,45.23,46.4,8.44,14.865,39.09,65.58,44.67,78.6,73.19,30.56,61.93,57.2,22.29,83.0,63.14,31.23,21.035,56.97,51.285,18.02,94.49,89.26,196.01,48.925,80.29,80.89,23.11,23.38,63.34,48.77,16.77,61.1,27.78,128.6065,60.47,71.95,32.24,74.6,36.3246,57.89,93.17,21.9,55.33,61.27,66.45,12.2,22.4,58.42,97.96,37.92,48.26,40.32,65.56,19.8,53.0,107.89,45.75,55.32,31.09,32.4706,97.42,26.39,92.54,53.32,120.09,41.18,26.41,44.04,49.69,26.71,13.82,68.92,48.16,60.141999999999996,68.19,63.51,41.39,20.8,42.1,98.37,39.25,123.43,66.55,31.05,55.07,48.23,16.35,117.56,71.6,100.62,41.75,116.84,20.09,35.56,100.43,43.81,36.505,48.05,36.28,27.07,31.85,54.35,116.79,221.01,12.6,33.41,62.52,29.76,32.46,86.48,30.15,34.8228,24.47,30.85,31.425,33.56,90.94,69.4,27.0,73.55,41.07,58.29,46.79,14.41,26.75,51.82,63.63,124.56,88.32,38.88,14.94,56.36,46.3,886.86,40.74,34.24,85.11,29.67,42.65,80.44,25.91,102.51,16.18,53.6,34.38,38.9,89.17,75.54,60.88,59.26,80.525,31.73,126.21,78.68,159.54,58.47,132.15,26.55,120.68,153.33,64.51,37.37,133.43,53.44,273.67,10.04,36.46,51.08,43.74,181.64,46.83,95.63,126.7,33.59,79.86,34.18,71.22,75.56,35.965,52.22,22.19,27.17,174.98,71.98,112.39,81.43,91.21,94.87,70.92,36.79,45.42,161.72,60.28,116.1,87.16,34.66,68.64,41.25,51.53,83.81,23.77,70.42,24.35,34.7,35.42,49.88,143.92,50.43,71.42,79.65,52.09,47.1467,90.48,53.3,73.27,74.57,83.39,60.07,27.31,27.34,62.07,38.76,27.67,16.9575,34.97,25.5,70.1,100.47,72.27,31.38,79.36,86.41,55.16,37.7,105.57,47.86,72.29,47.0286,72.14,35.53,47.28,86.16,60.86,47.57,81.91,67.83,50.42,100.51,50.01,65.09,43.66,43.26,131.66,41.72,33.81,77.89,17.75,28.22,61.77,133.07,75.89,30.18,31.41,46.24,93.81,42.25,38.56,25.54,73.05,82.99,29.26,30.04
2013-08-06,46.08,18.92,83.18,66.4642,44.88,58.66,36.1,73.25,47.39,49.42,37.89,72.24,204.65,34.9,35.93,45.79,12.76,64.05,61.71,135.62,48.06,29.23,54.5,44.48,46.26,63.14,44.27,30.385,50.7,114.37,16.16,3.72,47.15,184.22,105.22,89.86,70.27,300.75,54.2,87.6,87.45,68.97,20.835,82.26,89.12,106.87,39.375,68.65,23.73,17.45,133.12,36.86,44.72,42.37,75.81,85.73,445.01,107.04,14.64,72.02,36.08,31.39,100.17,49.41,36.51,221.82,31.52,284.59,22.14,117.91,11.18,47.93,103.92,51.48,30.73,37.06,51.44,82.53,90.1,23.05,47.6,54.0,69.79,37.35,14.5,70.87,49.32,37.908,31.375,25.15,59.58,127.05,77.76,48.75,60.99,85.59,42.66,22.495,72.39,405.89,122.09,27.89,28.94,24.62,69.29,38.79,74.13,130.15,67.09,119.5,47.48,45.42,26.21,25.61,48.01,36.18,37.005,72.7,59.89,123.14,95.01,59.32,20.98,81.2,50.81,54.87,58.46,19.6,67.05,82.59,75.07,44.91,55.46,54.25,86.64,47.15,15.87,49.25,70.73,71.12,58.17,55.8,26.44,53.7,93.5,59.8,65.16,48.45,67.43,80.92,62.39,76.61,177.17,54.74,85.35,66.27,157.87,15.14,65.5,66.86,36.105,30.25,41.21,50.97,43.4,17.03,49.03,38.55,40.0,29.16,108.77,38.01,88.46,45.94,50.395,19.36,35.63,33.04,65.55,56.47,65.85,103.87,53.63,87.34,24.31,20.5,59.98,52.61,15.07,35.96,448.7333,83.33,24.23,45.52,39.24,164.78,19.04,263.55,45.85,46.26,8.64,15.7325,38.33,63.25,42.34,80.05,73.46,31.62,63.19,58.71,22.58,84.16,66.38,31.61,21.69,57.29,52.505,17.73,97.69,91.78,190.99,48.745,83.23,79.02,25.93,22.8,63.65,48.25,16.01,60.88,28.27,130.9765,57.87,73.47,33.01,75.95,37.5707,59.49,93.81,21.99,55.49,59.81,65.8,12.38,21.98,58.37,99.74,38.17,49.24,40.37,70.39,19.645,51.69,107.76,45.92,56.96,31.21,32.6471,97.44,28.96,93.03,53.32,124.26,43.4,26.465,44.87,48.85,26.76,13.84,68.58,48.44,65.4,65.08,62.35,41.68,20.74,42.63,98.69,41.31,123.57,70.96,31.86,55.13,49.58,16.91,127.86,73.34,99.34,42.01,117.5,20.9933,35.4,95.02,40.68,35.56,48.44,36.88,27.31,31.58,56.4,118.26,229.0,14.14,36.82,64.14,30.26,32.53,86.82,26.63,36.5571,24.24,30.41,33.27,33.69,94.88,72.08,26.3,73.93,41.5,58.34,46.5,14.61,27.32,52.63,63.48,127.2,88.18,40.52,15.02,56.13,45.08,935.38,41.805,33.71,85.05,29.34,43.41,81.74,25.96,101.5,16.19,54.29,36.3,38.36,88.77,76.53,63.23,57.57,80.71,31.66,127.89,80.73,162.17,58.31,132.51,27.55,120.48,176.67,65.59,38.25,134.43,51.91,254.5,10.02,38.38,51.66,44.15,189.51,47.97,99.39,126.34,33.875,81.52,34.43,75.79,74.6,36.4,51.31,22.42,30.04,177.17,73.29,114.23,82.22,89.55,95.53,73.22,37.29,43.77,156.35,63.34,116.96,87.66,35.23,70.65,40.3,54.11,85.7,24.26,70.97,26.66,35.06,35.48,53.26,145.2,51.35,71.79,81.46,53.76,47.3934,92.08,53.94,79.28,75.43,82.36,61.06,30.71,28.04,64.08,39.73,28.46,17.51,33.57,24.62,70.71,103.51,73.24,30.92,80.0,87.95,57.34,37.61,105.2,45.7225,72.02,47.8714,78.85,36.53,47.71,84.05,63.55,48.55,77.33,64.74,50.09,102.22,50.24,64.46,43.47,44.03,131.81,42.64,36.05,77.87,18.39,28.18,62.01,139.18,79.47,29.82,31.37,45.56,91.47,42.58,39.88,25.43,74.0,83.0,29.38,31.13
2013-08-13,46.92,16.36,84.49,69.9385,44.93,58.14,35.94,72.88,47.14,49.58,38.63,72.99,207.75,36.68,35.05,44.31,12.97,64.05,61.95,134.64,48.3,28.76,55.76,44.38,46.94,63.27,44.77,29.34,50.48,110.12,15.73,3.69,45.73,180.88,107.86,90.27,69.28,293.97,51.73,88.56,86.99,68.85,21.355,82.51,89.11,103.95,38.695,66.15,24.45,17.46,129.71,38.02,46.15,42.62,76.23,88.19,433.8,106.23,14.51,73.83,35.87,30.86,99.86,49.1,35.815,211.25,30.75,279.81,22.645,117.28,11.24,49.915,103.11,51.77,31.24,36.6,52.19,86.57,90.35,22.94,49.56,53.65,67.66,36.59,14.21,68.825,48.99,38.006,30.635,25.03,56.44,126.1,78.97,48.75,61.08,86.39,42.31,22.425,74.44,406.34,127.52,27.6,28.605,24.03,68.56,37.615,74.29,131.5,66.9,115.65,47.89,45.07,26.3205,25.32,49.29,33.88,36.67,73.67,60.32,122.5,94.42,60.25,19.55,83.91,50.65,54.6,59.51,18.54,63.98,83.49,75.66,45.13,54.58,53.73,88.61,46.46,15.31,49.14,69.92,70.82,57.325,57.55,26.55,54.12,93.15,58.71,65.09,48.23,66.45,80.63,62.41,79.12,175.25,52.66,84.23,65.42,154.1,14.61,66.94,65.71,36.01,30.42,40.71,49.38,43.14,17.06,46.93,37.019,37.3,31.16,108.61,36.97,93.0,46.98,50.77,19.09,34.94,33.2,65.81,57.44,66.12,103.4,54.36,86.0,24.2,20.57,58.93,52.42,15.21,35.84,441.0656,81.57,23.82,44.69,39.03,163.71,19.21,257.15,46.58,45.69,8.59,15.6025,38.63,62.06,41.13,79.44,75.21,31.5,64.8,58.86,22.72,83.69,67.26,31.34,21.905,58.27,53.58,17.49,97.33,93.37,188.42,48.5,83.6,79.64,27.33,22.52,65.0,48.12,16.1,62.02,27.73,128.5332,59.77,73.97,33.12,75.47,36.7016,60.98,93.01,21.16,54.29,60.18,65.9,12.28,21.68,59.35,98.14,37.14,49.74,39.65,72.4,19.57,50.83,109.21,47.2,61.36,30.78,31.5294,98.2,30.51,93.31,54.96,124.06,43.15,26.285,46.13,48.49,26.9,13.47,70.08,48.5,63.333,63.38,60.14,40.57,19.23,42.57,96.45,40.88,123.54,69.0,32.08,54.84,49.54,17.37,127.43,73.22,98.34,41.97,118.67,20.6,35.22,97.1,44.44,37.47,48.43,34.36,26.96,32.23,57.84,117.38,230.39,14.97,37.15,63.75,32.22,31.91,85.1,30.08,37.0271,24.48,30.81,32.905,33.4,95.26,73.47,25.52,74.29,42.29,57.57,48.14,14.42,26.86,51.52,62.26,127.54,87.87,40.31,14.94,56.39,44.14,953.61,42.6,33.5,83.39,29.27,42.95,81.66,25.74,106.87,15.37,54.71,37.63,37.14,88.33,75.98,64.17,57.12,81.38,31.46,127.64,80.42,160.17,59.09,131.93,27.37,120.27,174.06,67.25,39.15,138.54,50.78,244.39,9.88,38.9,53.52,44.07,178.53,49.17,99.14,127.55,33.925,79.03,34.89,76.8,73.26,36.32,50.8,22.28,30.27,175.79,75.61,113.91,82.22,88.82,98.54,76.19,37.81,43.78,155.2,63.57,117.11,85.9,34.92,69.23,41.17,54.71,88.81,24.74,70.88,26.96,33.11,34.72,52.42,139.62,50.75,71.19,82.28,52.68,47.68,92.65,53.29,80.96,74.58,81.94,60.965,31.83,28.49,63.1,39.76,28.76,18.5175,30.73,23.67,71.78,105.45,73.35,29.99,80.095,87.71,55.73,37.11,106.8,44.8075,73.85,47.4119,79.74,36.86,48.3,83.24,63.05,49.32,77.53,63.22,49.15,103.53,50.54,68.41,42.46,43.32,134.42,43.5,35.34,76.86,18.65,26.99,59.86,139.62,79.65,29.02,30.78,45.47,89.4,42.72,41.96,24.97,72.97,81.85,29.15,30.45
2013-08-20,47.03,15.8,81.66,71.5814,42.97,57.45,34.71,72.16,45.07,47.85,36.59,72.34,201.6,35.69,33.75,42.82,12.69,63.05,59.82,135.05,46.92,28.1,55.09,43.36,46.21,62.42,43.61,29.22,49.04,105.1,15.56,3.63,44.13,177.11,105.6,88.03,69.38,287.09,46.7,85.62,86.02,68.51,20.905,76.27,89.79,102.23,37.765,62.46,24.0,16.75,123.85,36.79,44.35,40.77,74.27,85.92,424.83,104.63,14.29,71.35,35.64,34.8,98.18,46.84,34.83,206.55,30.56,266.93,23.09,115.01,11.01,48.35,101.55,49.92,30.1,35.0,51.07,83.86,89.44,21.99,47.98,51.55,68.96,36.16,14.3,67.87,47.63,37.578,30.505,25.26,56.46,124.89,78.57,47.49,59.09,84.39,42.44,21.345,72.39,407.55,123.57,27.0,28.46,23.31,66.59,37.56,72.0,129.74,65.98,112.84,46.07,43.39,24.32,24.82,48.51,32.58,35.325,71.74,59.28,118.29,92.84,57.88,19.19,83.25,49.42,53.37,58.76,18.91,61.88,80.02,72.82,44.46,52.69,52.0,86.83,45.58,14.63,47.84,67.59,66.79,55.975,56.53,26.75,51.99,90.6,56.42,62.62,46.74,66.86,78.48,61.56,77.31,168.18,51.32,83.66,64.64,147.23,14.59,65.12,63.99,35.23,30.12,40.55,47.6,41.81,16.31,44.82,38.41,38.42,30.98,109.21,37.23,86.81,45.82,49.585,19.06,35.1,32.09,65.05,56.65,65.42,100.37,52.97,84.11,23.72,19.42,58.0,49.4,14.47,34.79,433.1427,79.73,24.185,43.31,38.45,159.56,18.83,251.31,47.35,45.08,8.57,14.8475,38.58,60.01,39.98,74.29,73.72,30.55,63.96,58.62,23.0,81.72,64.94,28.94,21.39,56.36,51.95,16.93,95.25,91.69,184.56,48.255,82.1,78.54,27.0,22.523000000000003,63.14,47.2,16.03,60.16,26.98,128.4832,58.37,72.35,31.46,73.72,35.5288,60.14,89.73,20.31,52.12,57.1,62.61,12.16,20.57,56.35,94.99,36.94,48.28,38.65,71.26,18.89,52.22,107.12,45.77,60.66,29.86,32.7549,96.61,29.74,92.1,52.8,122.41,43.14,25.455,44.08,48.25,25.86,13.15,68.24,45.61,62.24100000000001,62.26,56.77,40.05,19.06,42.02,95.5,39.11,122.52,64.57,30.75,52.83,47.88,17.24,124.08,70.65,98.75,42.24,115.42,19.7466,33.77,95.88,41.98,35.495,47.56,33.25,26.31,31.62,57.05,116.71,225.33,13.8,35.73,62.24,31.46,31.22,82.19,32.81,39.0414,23.11,29.63,32.315,33.66,93.74,71.6,26.49,73.02,41.75,56.5,46.48,14.95,25.92,50.94,62.37,123.59,85.95,39.54,14.82,54.83,42.77,932.77,41.87,32.55,80.29,28.53,42.28,79.53,25.25,102.39,16.19,54.02,36.25,35.31,84.21,74.59,61.92,55.11,79.485,30.75,119.02,78.09,156.41,57.01,129.39,26.22,117.47,167.64,66.71,38.05,138.36,49.32,233.3,9.86,37.63,51.32,42.64,171.97,49.32,97.31,124.93,33.69,76.62,33.65,76.05,73.0,35.33,48.91,21.69,28.88,171.91,73.24,109.1,80.62,87.39,96.24,75.0,37.01,42.25,145.93,60.15,115.5,83.21,34.23,68.26,39.22,54.21,86.75,24.85,68.25,26.26,32.43,33.87,50.52,138.51,49.67,67.95,81.19,54.24,46.96,90.32,52.06,69.81,72.57,80.27,60.18,31.83,28.2,61.88,38.75,27.2,17.8775,30.06,22.76,70.19,101.47,72.46,29.55,78.22,86.3,55.77,36.86,102.4,43.305,72.42,45.5762,78.24,35.24,49.63,81.18,61.69,48.9,76.55,60.33,47.91,98.97,48.76,65.0,41.16,42.59,134.25,42.12,34.68,73.23,18.05,27.35,59.8,139.9,78.89,27.82,30.4,44.46,86.83,41.87,40.28,24.3,72.64,79.85,29.54,30.23
2013-08-27,46.97,15.47,81.53,69.7985,42.63,56.87,34.01,72.24,45.5,46.16,34.63,70.94,196.22,36.99,33.53,42.77,12.73,63.06,57.76,131.43,46.16,28.09,53.82,42.01,46.3,62.59,43.62,28.485,47.82,105.7,15.069,3.39,43.27,172.64,109.13,85.43,70.06,280.93,46.34,83.68,85.07,66.26,21.08,78.57,90.88,101.86,37.585,62.3,23.745,16.205,125.78,36.555,43.18,41.59,71.91,84.95,419.12,103.21,14.11,70.6,34.49,35.02,97.25,45.2,34.51,207.65,29.66,258.96,22.535,111.54,10.7,47.375,103.41,48.24,29.4,34.37,50.03,82.7,88.45,21.52,46.47,51.16,69.95,36.57,13.69,68.48,46.65,38.69,30.205,26.02,57.61,121.01,78.22,46.26,57.64,82.69,40.86,20.9,70.5,400.08,122.03,26.6,28.65,23.04,64.31,38.75,70.66,129.53,66.02,111.67,45.07,42.46,23.485,24.81,47.86,32.94,36.095,70.34,57.69,118.81,95.88,58.51,19.11,83.48,47.21,54.65,58.54,17.99,60.69,78.28,71.43,44.29,55.41,53.51,85.25,45.36,15.1,46.46,67.2,65.85,54.37,56.96,26.99,50.61,90.6,56.31,61.18,46.08,65.64,75.88,60.58,78.145,170.23,52.92,84.47,64.03,146.06,14.06,64.04,62.56,35.585,30.56,40.67,46.96,41.42,15.88,44.02,39.64,36.95,30.6,108.45,37.57,82.84,44.52,48.25,18.43,32.16,31.33,64.73,56.03,66.96,99.2,54.3,82.91,23.18,19.22,58.74,49.14,14.22,33.69,425.5001,77.84,24.0,40.49,39.73,153.23,19.01,247.69,48.13,45.56,8.18,15.0875,38.5,61.51,40.92,74.12,75.45,29.67,63.92,58.85,22.02,79.25,63.22,28.3,20.655,55.66,50.88,17.07,92.15,92.7,182.74,47.77,79.9,76.65,34.12,22.191,63.71,46.5,15.66,59.3,26.62,128.7412,57.74,71.51,30.32,73.33,34.9843,58.25,86.17,18.95,50.6,56.62,61.63,11.65,20.25,54.67,93.53,37.12,47.34,38.15,71.23,18.2,49.84,105.34,45.07,56.91,29.07,31.6372,96.01,29.4,90.72,51.27,123.14,42.33,25.095,46.0,46.39,25.13,12.8,68.79,43.47,60.792,62.85,56.17,40.42,18.71,40.53,94.84,38.54,120.85,63.43,30.7,51.51,45.85,17.36,120.15,68.07,96.17,41.12,112.73,19.3266,33.99,97.51,41.17,36.55,47.11,33.38,25.45,33.26,56.12,114.41,222.41,13.179,34.76,61.37,31.21,29.94,81.09,32.11,39.4342,23.42,29.41,31.405,33.76,92.93,73.15,25.9,72.89,41.471000000000004,54.77,45.53,14.805,25.2,51.79,60.42,122.02,87.35,38.47,14.265,53.56,41.48,935.6,39.96,32.5,79.06,27.995,40.6,77.97,24.99,100.52,15.59,53.42,36.02,35.82,84.11,72.24,60.39,54.39,78.88,30.75,116.83,74.57,153.81,57.1,128.01,26.46,116.83,171.1,66.021,36.69,136.79,48.88,239.172,9.465,35.78,50.17,41.49,165.78,48.79,97.06,123.15,33.865,76.15,33.3,75.26,74.3,35.08,48.46,20.74,28.14,167.2,67.81,106.57,81.17,87.6,94.17,73.18,36.44,41.68,145.74,58.46,113.49,83.76,32.44,66.87,38.510999999999996,55.0,84.59,24.44,67.08,25.465,31.74,33.69,49.48,137.67,48.69,63.26,80.82,52.95,46.0667,88.83,51.99,71.08,70.3,79.74,60.175,29.12,27.66,61.51,38.25,26.65,18.0175,27.71,22.92,69.31,100.31,71.52,29.23,76.795,85.84,54.22,36.11,99.94,43.5425,71.39,44.331,78.32,35.26,47.78,82.88,62.27,48.75,75.0,62.86,46.95,98.45,47.25,61.44,40.72,41.11,128.74,41.17,36.12,72.86,17.65,27.33,58.83,139.21,82.87,27.71,30.13,43.11,86.82,41.83,38.68,24.27,71.37,78.34,27.92,29.2
2013-09-03,46.93,16.39,79.78,69.7971,42.59,57.39,32.93,73.08,45.88,46.66,35.4,71.41,196.74,37.13,33.23,42.16,12.7,63.77,58.16,136.94,47.67,27.24,53.86,41.4,46.85,62.13,44.37,28.245,48.46,110.17,15.11,3.27,42.6,175.66,111.01,87.08,69.23,288.8,47.02,83.26,86.28,66.69,21.29,84.79,92.71,102.91,37.675,61.5,23.16,16.98,122.72,38.35,42.89,40.29,72.43,84.43,419.76,105.01,14.25,69.54,33.81,36.99,97.31,46.62,33.345,221.79,30.12,263.78,22.145,112.08,10.9,48.405,101.68,49.37,29.39,33.9,50.22,82.51,88.28,21.98,45.03,53.5,69.23,35.98,13.27,71.505,46.91,38.326,29.585,26.16,57.45,123.05,79.46,45.8,57.45,82.72,40.73,21.37,72.33,404.9,124.13,26.16,28.94,22.76,64.4,39.93,70.68,131.82,66.79,111.98,42.75,49.58,23.48,24.91,47.99,32.91,37.245,71.2,58.52,120.55,96.94,57.78,19.84,84.06,47.76,53.88,59.0,17.8,60.93,77.34,71.01,45.8,54.1,52.53,85.64,44.6,14.39,46.21,65.86,64.96,54.295,57.23,27.36,50.32,92.58,55.5,59.25,45.18,66.26,76.85,60.7,79.215,176.93,51.26,86.84,64.5,141.49,14.54,63.08,62.54,35.28,30.09,41.46,47.27,40.43,16.34,45.0,41.87,36.79,31.12,107.6,36.94,85.02,44.51,48.27,18.31,32.08,31.32,63.54,56.48,66.76,96.99,54.29,84.35,23.06,19.03,60.92,49.19,13.92,34.14,430.6202,77.11,23.925,40.72,41.46,154.76,20.28,251.27,48.3,46.28,8.24,15.185,38.68,60.84,40.49,73.9,75.99,30.2,63.59,61.07,21.2,80.98,62.91,27.88,20.63,57.56,50.885,17.04,91.04,94.35,183.96,46.595,79.39,76.68,34.25,22.066999999999997,63.75,47.47,16.04,60.53,25.79,128.3899,57.03,71.49,30.59,71.71,34.4817,58.57,86.42,19.45,51.13,55.49,60.75,11.68,19.89,55.38,92.64,37.57,48.02,37.9,74.43,18.41,51.4,105.99,44.53,57.43,28.86,30.9706,96.04,29.0,90.56,51.31,123.63,42.62,24.395,45.61,46.85,25.52,12.82,70.47,44.28,62.345,61.04,55.73,40.3,19.08,40.82,94.52,39.19,122.52,64.07,30.79,52.09,47.09,17.97,117.64,67.46,95.09,41.54,113.22,18.0066,33.83,99.18,41.19,36.72,47.21,35.17,26.27,31.88,56.28,114.17,221.08,14.01,35.71,62.18,31.46,29.78,79.77,31.47,41.2857,23.74,29.13,32.145,34.67,93.14,75.68,26.1,72.57,41.82,55.2,45.68,14.76,25.72,51.11,60.66,122.95,88.47,38.57,14.27,53.56,41.01,942.83,39.83,32.14,80.2,28.01,41.38,77.75,25.25,100.99,15.39,52.74,36.35,35.3,83.4,72.48,60.63,53.12,78.605,30.61,122.0,75.92,152.4,58.11,129.34,25.93,117.47,179.8,66.75,36.9,139.06,46.61,259.15,9.35,35.75,50.85,41.71,167.12,47.49,98.0,124.62,34.075,76.54,32.16,75.69,75.21,35.8,47.3,21.15,28.54,171.08,66.56,105.39,82.42,86.01,93.45,74.37,35.52,41.09,144.44,59.92,111.56,83.4,31.9,67.56,38.67,55.18,86.22,25.41,67.22,26.08,32.18,33.32,48.56,138.73,49.34,63.59,76.54,53.13,46.1134,90.12,53.16,73.82,70.7,80.57,60.735,28.84,27.72,61.36,38.64,27.28,18.5325,28.65,22.24,67.87,98.54,72.56,29.74,76.87,85.96,55.65,36.06,102.66,44.255,71.04,45.0119,79.91,36.3,48.49,80.96,62.84,48.56,75.38,61.57,46.01,99.98,48.74,63.26,40.33,41.39,128.56,40.15,35.93,72.68,17.53,27.1,60.02,141.68,83.9,27.49,30.13,44.62,87.15,42.0,40.48,25.08,70.0,78.91,28.35,29.43
2013-09-10,48.55,18.12,81.08,70.6628,44.78,59.37,34.09,74.74,48.02,47.879,36.08,73.74,205.93,38.08,33.27,42.89,13.57,65.38,59.92,135.68,49.42,28.2,55.8,44.2,49.43,64.09,47.03,30.71,49.44,113.62,15.98,3.87,44.31,183.31,111.16,90.72,74.58,300.36,45.94,87.77,87.8,68.65,22.275,87.26,93.4,106.2,39.01,63.28,24.165,17.15,128.33,39.66,44.75,39.95,74.6,92.44,419.92,108.17,14.61,71.43,33.81,37.92,99.69,47.76,34.595,228.69400000000002,31.28,266.51,22.655,113.59,11.95,49.745,106.62,51.09,30.58,31.54,51.13,86.61,90.01,23.52,45.89,54.05,73.21,37.19,13.51,74.37,48.14,39.538000000000004,29.48,26.34,59.22,127.44,81.69,46.62,58.59,83.58,41.18,21.42,73.23,418.64,131.75,26.11,29.33,23.11,67.85,38.62,71.97,134.97,68.66,117.32,41.24,50.02,24.155,26.06,49.75,32.62,39.63,71.86,59.22,123.01,100.8,58.41,22.63,84.18,50.14,57.33,61.76,18.89,62.83,77.94,71.48,46.73,53.37,54.37,89.54,44.54,14.89,47.86,66.71,65.95,55.81,58.7,26.95,53.49,95.39,55.9,59.63,45.63,68.97,77.75,63.66,81.75,177.23,54.4,85.75,65.61,149.6,17.1,67.88,63.27,36.055,30.73,44.29,51.84,43.34,17.55,50.26,43.6,40.89,31.93,110.59,37.87,89.96,45.91,49.99100000000001,18.5,33.31,32.39,66.72,61.23,69.28,99.54,55.11,86.74,23.87,19.48,62.86,48.71,14.86,37.0,444.7793,80.93,24.64,41.34,42.65,165.14,21.97,269.36,50.32,47.17,8.71,15.75,39.34,61.44,41.0,74.6,77.79,31.75,66.83,63.52,20.535,84.13,66.12,27.24,21.22,58.07,52.425,18.03,91.49,97.09,186.6,48.595,80.28,80.91,37.01,22.985,66.32,49.27,16.55,64.81,25.85,125.6565,58.29,74.43,31.37,74.99,35.8429,58.51,88.53,21.15,53.67,57.1,59.46,12.14,20.33,59.63,93.9,37.05,52.05,38.63,73.21,18.77,52.34,111.85,45.73,58.25,30.26,32.8235,100.06,31.35,92.88,52.87,125.07,44.98,24.47,47.15,50.21,27.95,13.9,70.9,44.58,65.15,62.48,57.3,41.61,20.72,42.1,96.89,39.43,125.92,67.2,31.04,53.96,49.62,19.04,125.8,67.33,99.32,42.18,117.59,18.6766,34.98,102.73,45.53,34.05,47.98,35.77,28.04,32.39,57.37,113.15,232.91,16.26,38.24,65.06,31.75,30.98,80.61,29.2,44.7228,24.25,29.79,33.41,35.4,94.45,78.63,26.79,76.34,43.09,56.019,47.97,15.45,26.32,52.47,63.88,125.34,89.66,39.99,14.37,55.98,41.41,977.5,40.65,32.31,79.43,28.45,43.75,77.95,25.98,105.81,16.29,55.4,37.7,37.29,84.23,73.65,64.32,52.92,81.855,30.34,123.74,80.6,157.87,56.79,124.66,26.08,119.93,180.99,70.09,38.23,138.13,48.01,276.638,9.66,38.43,52.84,43.48,163.04,52.26,104.02,129.7,34.935,78.38,32.73,76.89,78.26,37.1075,46.54,22.37,30.57,175.23,69.7,108.91,86.9,89.92,98.01,74.94,37.24,41.41,148.73,61.95,114.78,83.62,33.16,68.65,41.07,58.24,89.42,26.33,69.54,25.23,32.23,33.97,49.39,140.87,52.99,64.73,78.57,53.92,48.0934,90.77,53.75,72.62,72.04,82.54,64.65,29.85,28.86,62.94,40.31,29.5,20.015,33.3,23.69,69.67,103.67,74.63,31.03,78.625,88.07,57.67,36.71,106.26,46.1475,73.62,45.75,80.75,36.15,51.5,84.28,64.66,49.9,81.32,61.32,46.47,103.89,50.67,66.09,40.14,42.45,136.96,40.7,36.19,73.96,18.56,28.78,61.5,149.24,88.84,27.72,30.59,46.97,87.82,44.38,40.88,27.07,71.53,80.85,29.21,30.95
2013-09-17,48.87,18.72,79.93,65.0456,47.6,61.59,34.97,76.61,48.14,48.49,37.16,74.16,209.75,39.31,33.62,43.2,13.32,67.75,62.22,137.69,50.46,28.48,56.15,44.29,51.58,63.35,47.96,31.19,51.19,114.24,15.905,3.85,45.47,186.44,115.73,93.33,73.92,304.17,45.58,87.84,88.27,70.01,22.4,88.25,93.67,106.54,39.06,64.0,24.78,17.16,129.21,40.12,44.18,39.48,76.92,93.14,418.51,117.11,14.55,71.58,35.06,38.95,100.8,50.54,35.46,240.05,31.45,272.99,22.89,115.39,11.9,50.24,105.7,51.2,30.6,31.85,53.57,87.07,92.8,23.66,45.3,56.39,70.45,37.62,14.0,73.52,49.48,40.152,30.845,27.16,60.39,130.26,83.72,46.75,59.8,84.45,41.15,22.225,71.95,425.41,131.96,26.11,30.39,23.49,69.12,38.21,74.5,134.41,69.7,117.91,41.96,49.9,24.37,26.21,50.49,32.43,40.55,74.0,61.01,124.34,104.01,61.75,23.32,83.71,52.59,57.33,61.98,19.95,66.98,79.49,73.55,47.25,55.05,55.83,89.67,45.52,15.54,49.58,66.22,66.19,59.1,58.86,27.6,54.63,96.27,55.28,61.03,45.23,71.33,77.37,64.89,83.885,174.94,54.55,90.0,65.95,151.3,17.48,68.22,63.8,35.875,30.34,43.89,52.26,44.17,17.44,50.24,45.07,41.62,33.53,110.68,37.74,91.632,46.85,50.955,18.55,33.36,31.86,68.04,61.55,70.59,100.75,56.22,89.14,24.45,19.61,62.69,49.78,14.65,36.71,443.4981,80.36,24.965,42.09,44.42,167.42,21.98,269.37,49.67,47.76,8.66,15.89,41.31,62.82,41.76,75.8,77.79,32.3,69.32,64.34,20.56,85.45,69.01,27.4,21.62,58.99,52.815,18.3,93.58,99.6,192.16,49.035,82.65,84.43,36.72,23.74,66.3,48.11,16.92,64.73,27.22,124.6532,56.89,75.49,31.67,73.98,36.9319,58.86,89.06,21.42,53.09,58.18,60.64,12.12,20.64,61.68,96.36,34.72,50.98,38.79,75.02,20.275,51.88,111.43,47.3,59.96,30.8,34.3529,101.39,31.92,95.99,53.83,129.64,44.93,24.51,46.85,49.93,28.05,14.22,72.68,45.05,67.917,61.97,57.98,43.35,21.5,42.12,97.92,40.28,131.08,70.37,31.98,53.94,49.88,19.55,130.0,68.64,98.37,42.74,119.93,19.01,35.36,104.43,45.0,33.105,48.01,35.93,29.01,32.93,58.28,113.54,239.23,16.84,38.5,66.1,33.18,31.53,79.0,28.52,42.7928,26.05,30.25,34.16,36.39,98.75,78.9,27.92,76.86,43.82,55.61,49.47,15.86,26.84,52.2,66.34,125.38,90.98,40.72,14.66,56.97,41.07,970.24,41.28,32.84,81.66,28.64,43.9,79.83,26.32,105.22,17.0,59.95,38.54,37.55,88.22,74.77,64.58,53.98,82.68,30.21,124.64,81.63,158.54,56.05,122.71,27.13,121.39,184.6,69.42,40.06,141.49,48.71,296.62,9.64,38.7,52.57,44.09,166.68,53.73,106.35,131.93,35.585,79.13,33.35,80.26,77.28,38.02,46.43,22.64,29.81,175.68,69.21,108.3,87.74,90.45,99.74,76.73,37.64,41.15,151.43,64.49,115.75,86.08,33.96,69.1,41.26,59.35,89.65,25.68,71.35,25.3,33.17,34.75,50.7,145.0,53.51,64.38,79.86,55.94,48.5334,93.29,55.28,72.93,72.79,84.87,65.375,30.27,29.4,62.9,40.73,29.35,19.205,32.95,23.96,72.83,117.13,74.31,31.41,78.72,89.89,56.5,37.52,110.39,47.9,74.98,47.0643,83.14,34.6,51.92,85.05,66.02,50.44,78.03,62.89,48.57,105.98,54.92,65.09,40.09,42.85,143.03,41.19,35.2,75.15,18.83,28.58,62.6,150.76,91.11,27.1,30.92,47.99,88.94,44.51,41.6,27.25,72.74,83.15,29.43,32.38
2013-09-24,51.6,18.99,80.1,69.8714,45.98,60.91,34.36,75.14,51.42,47.74,36.77,72.95,210.69,40.82,35.39,44.21,13.52,64.81,62.02,139.33,49.24,28.11,54.59,44.3,51.93,62.47,47.48,31.87,51.75,113.59,17.445,3.8,46.22,184.3,114.78,91.0,72.85,314.13,45.09,86.0,84.29,76.02,22.49,87.0,94.71,107.21,38.665,65.44,24.9,16.93,129.57,42.41,43.76,40.79,76.07,91.11,414.31,119.0,14.09,71.26,33.87,38.3,101.09,50.7,34.7,243.54,30.19,272.5,22.72,115.05,11.46,51.16,107.2,48.96,30.26,30.71,52.4,85.11,94.66,23.3,45.15,56.07,70.33,34.54,13.6,73.22,48.89,41.596000000000004,31.07,26.38,61.71,131.15,78.31,47.01,59.87,83.6,39.44,21.845,73.03,418.76,133.93,26.8,32.38,24.03,68.49,36.73,69.41,127.79,70.4,116.34,41.5,52.14,24.14,26.08,51.06,32.17,41.445,72.29,57.92,124.49,106.69,62.45,23.76,84.26,50.8,58.11,62.23,20.06,64.32,80.35,73.23,46.05,55.77,58.14,90.89,45.27,15.74,46.42,67.18,67.69,57.6,59.73,26.55,55.17,98.36,56.26,60.3,47.0,71.51,77.16,64.96,86.045,181.39,54.29,90.36,60.94,148.66,16.66,70.43,63.98,34.845,30.52,44.7,52.19,45.76,17.26,49.93,48.45,40.9,33.74,114.72,37.41,87.07,46.83,50.905,18.035,33.08,31.58,71.33,62.79,71.42,102.03,55.17,87.93,24.32,19.44,62.74,48.85,14.88,37.44,443.8634,80.84,24.8,41.03,44.04,162.97,22.82,268.26,48.75,48.41,8.26,15.8525,41.45,63.07,41.4,76.04,78.51,31.42,67.47,64.35,20.485,84.25,68.8,26.98,21.57,58.02,52.035,17.92,92.83,96.0,189.97,49.005,82.64,80.96,36.04,23.705,65.96,47.04,17.08,65.81,28.93,121.2965,59.57,78.0,32.2,73.29,36.0628,58.22,88.22,20.2,50.32,56.41,59.96,11.42,20.26,61.14,95.37,36.19,51.79,38.53,74.16,20.425,52.06,111.13,47.16,59.9,30.57,35.3039,99.17,31.61,95.52,52.43,128.14,42.02,25.07,48.04,50.998000000000005,27.08,14.7,72.42,43.58,68.53699999999999,61.71,57.47,43.06,21.82,42.75,97.78,40.94,127.91,70.51,32.055,53.43,47.11,20.14,129.32,68.57,96.14,44.24,120.8,18.2466,35.08,105.41,44.36,32.155,47.53,35.57,27.27,32.455,59.99,110.49,239.4,17.04,38.13,67.14,31.94,32.18,81.22,28.0,43.7842,27.74,30.84,34.715,36.57,95.95,78.68,28.02,78.28,42.88,55.09,50.3,15.7,27.4,53.33,64.69,124.1,92.8,40.71,14.325,56.77,42.19,1005.99,40.35,33.88,80.54,28.71,43.08,78.62,27.06,108.71,17.1,58.27,37.82,37.85,87.41,72.72,65.08,55.64,81.735,30.76,124.36,77.8,160.47,57.77,123.1,27.66,120.51,184.55,68.51,38.66,143.71,48.36,295.11,9.19,38.66,46.73,42.4,165.18,52.55,107.2,134.3,35.805,77.48,34.14,78.71,77.42,38.275,47.18,21.14,27.25,180.0,70.75,106.39,87.91,88.95,100.42,76.98,37.42,42.08,150.0,66.03,113.99,87.71,32.48,66.49,41.8,57.4,89.59,25.83,70.83,24.69,32.4,34.09,50.2,136.52,52.32,63.91,79.12,55.87,48.0867,92.82,54.73,75.3,72.89,85.87,65.0,29.37,29.18,63.35,40.315,28.28,19.3975,33.89,23.64,72.99,117.15,72.32,30.48,79.62,91.26,56.61,36.9,110.0,48.335,75.27,48.2333,82.94,34.31,51.55,84.69,65.52,51.62,74.53,62.41,47.27,106.66,55.39,64.68,41.28,41.73,148.78,41.69,36.6,75.75,18.72,28.35,61.97,156.12,93.88,28.14,30.86,46.72,87.36,43.92,41.24,27.36,72.06,83.83,27.61,31.48
2013-10-01,51.9,19.69,83.48,69.7085,45.8,62.48,33.78,73.82,52.43,47.11,36.85,72.16,214.36,40.49,34.87,43.72,13.38,64.9,63.42,145.1,49.1,28.26,54.36,44.28,52.42,63.69,49.26,32.625,50.73,117.39,17.47,3.86,45.69,185.0,114.58,92.18,74.06,320.95,43.1,87.76,86.11,73.65,22.775,86.47,93.44,107.11,38.81,64.51,24.51,16.9,127.69,43.42,43.28,41.43,75.93,98.91,425.11,117.75,13.9,65.58,34.03,37.95,100.92,50.85,34.56,244.92,30.75,270.09,22.71,114.14,11.76,50.77,107.74,48.6,29.93,30.51,53.08,83.76,94.02,23.61,46.76,55.76,72.13,32.58,13.6,78.6,53.97,42.193999999999996,30.315,26.24,59.86,135.472,78.55,47.3,60.09,82.14,39.69,22.805,74.8,425.67,132.73,26.38,32.485,24.19,69.79,37.1,69.25,130.76,70.04,115.0,41.21,52.63,23.24,26.15,51.74,31.76,41.615,70.93,57.54,121.32,113.65,62.51,24.21,82.22,51.23,57.78,62.15,19.38,64.83,83.23,77.09,45.68,54.42,58.45,90.66,44.48,15.78,46.86,66.13,67.27,57.77,58.6,26.42,55.97,99.48,55.17,59.87,46.06,70.5,79.43,65.07,86.075,181.92,54.31,88.87,62.63,150.12,16.8,68.99,63.68,35.655,29.64,44.51,52.86,46.77,17.19,51.36,50.42,42.65,32.92,115.26,36.93,88.97,46.88,51.27,18.26,34.01,31.66,71.93,62.45,71.35,103.37,56.21,88.48,24.17,19.56,62.8,47.98,14.74,35.91,443.9455,81.19,25.35,40.4,46.31,159.0,23.25,264.65,48.6,47.619,8.35,15.8,44.6,63.51,41.91,76.26,78.69,31.29,68.72,65.45,20.84,83.22,70.92,27.86,21.205,59.77,52.591,17.9,92.58,95.35,186.38,51.37,82.62,81.19,40.0,22.83,66.45,45.28,17.15,65.17,26.98,124.1332,59.78,76.41,32.22,73.49,36.7539,58.61,87.47,20.15,51.96,55.95,58.75,11.53,20.17,60.99,94.38,36.1,48.8,37.95,75.85,20.325,52.32,111.49,47.16,61.86,30.45,35.0196,98.95,33.63,95.33,50.67,127.5,42.65,25.095,48.19,51.6,27.39,14.73,74.11,43.44,67.779,62.28,56.91,42.54,21.3,42.31,96.13,40.3,131.52,71.24,30.85,53.52,47.43,20.74,133.42,64.88,99.67,43.6,119.62,17.5333,34.71,105.48,43.99,32.145,48.74,35.04,27.14,33.58,60.89,112.22,242.53,17.61,39.45,67.99,30.83,32.39,80.07,27.21,46.3742,27.9,31.0,36.21,37.13,96.14,78.8,27.45,78.23,43.05,54.73,48.96,15.55,27.66,53.57,63.56,127.6,94.39,39.981,14.54,55.74,40.87,1038.27,40.36,33.21,79.82,28.89,43.01,76.16,27.35,109.35,16.67,58.22,37.95,38.27,87.37,72.67,65.98,55.07,83.405,30.65,125.2,78.09,162.75,57.9,115.21,27.81,120.83,194.46,67.49,38.94,145.91,49.42,316.632,9.4,39.1,45.74,41.9,164.93,53.41,107.96,133.57,36.87,75.95,33.54,77.81,79.42,38.58,46.01,21.38,27.48,184.52,72.04,105.41,89.05,90.2,100.75,78.55,37.84,41.28,149.54,67.03,116.99,85.35,32.8,66.7,44.7,57.89,92.36,25.56,67.96,24.65,31.89,34.06,50.94,141.28,52.07,63.91,76.86,56.78,48.08,92.85,54.35,78.5,72.11,84.66,68.27,28.5,29.49,66.68,40.4,27.87,20.6725,31.38,24.01,75.67,121.74,72.58,30.83,78.34,91.8,59.32,36.71,107.38,48.305,75.34,47.3429,84.33,33.84,52.69,84.72,65.16,51.23,77.02,63.11,46.99,105.7,56.24,64.04,40.49,41.49,144.69,41.58,36.75,73.59,18.7,29.13,60.96,160.07,98.96,27.79,30.98,47.26,86.0,43.62,41.96,28.24,71.58,82.41,27.96,31.78
2013-10-08,50.13,20.02,81.25,68.7056,44.52,61.19,33.01,71.09,49.58,45.7,36.19,70.24,215.51,40.39,34.39,43.49,13.3,64.28,62.15,139.8,47.7,27.37,55.14,43.83,50.0,63.33,44.03,30.665,50.49,108.47,17.505,3.72,43.93,182.67,107.76,89.85,71.89,303.23,41.65,83.61,85.37,71.38,21.75,86.1,92.12,102.58,37.415,63.48,23.82,16.37,123.87,42.6,42.28,40.09,72.22,94.8,415.71,115.44,13.69,64.41,32.66,35.67,98.33,49.52,33.93,225.49900000000002,29.57,262.75,22.33,111.37,11.46,49.16,103.55,47.67,28.82,30.09,53.2,82.85,91.16,22.11,45.45,53.99,70.26,31.72,13.03,74.265,53.17,41.744,29.63,26.05,57.78,131.61,77.4,47.13,58.96,81.49,38.65,22.3075,72.44,427.72,129.47,25.96,32.095,23.85,67.83,35.09,65.9,124.96,70.17,112.21,40.0,50.14,22.635,25.25,49.94,31.28,41.09,67.61,57.05,116.73,109.14,61.61,24.23,82.21,48.74,56.35,61.87,17.99,64.0,78.23,72.49,47.36,52.5,57.87,87.5,43.47,15.19,46.28,65.07,67.2,57.51,58.2,24.07,52.97,96.91,55.42,59.17,46.51,68.71,75.97,62.98,85.73,164.21,52.18,85.23,61.8,149.83,16.19,65.9,63.55,36.195,29.3,42.06,50.63,45.77,16.5,49.98,47.14,39.62,32.9,112.08,37.45,88.79,45.24,49.27,17.5,32.36,31.79,69.69,60.29,70.61,102.04,56.09,84.97,23.67,19.68,59.38,47.41,14.0,34.21,427.2618,78.28,26.87,39.21,46.07,153.05,21.85,258.04,48.66,45.93,8.085,14.6675,45.81,61.62,40.16,74.27,78.77,30.68,67.31,62.94,20.65,81.82,71.82,27.26,20.785,58.0,51.49,17.31,92.02,93.0,178.72,50.605,79.97,75.58,35.63,22.48,65.4,43.16,16.57,62.82,25.86,127.0765,58.49,74.06,31.5,71.37,35.8115,56.28,85.61,20.38,50.87,55.62,59.6,11.3,19.25,59.7,93.19,34.59,46.42,37.28,70.92,19.875,50.77,110.71,46.17,58.59,28.64,33.0686,100.07,31.03,91.99,48.05,122.46,41.71,24.68,46.53,50.74,27.15,14.82,73.17,42.45,65.387,61.48,55.32,41.53,19.4,40.39,93.94,38.89,133.72,69.57,30.69,52.46,46.45,19.94,125.0,65.03,95.25,42.63,117.16,17.8633,34.68,103.21,45.42,31.25,47.75,34.16,26.55,33.01,59.62,109.91,233.71,17.925,38.87,65.25,30.2,31.79,79.69,26.35,43.1885,28.29,30.21,35.14,35.9,94.09,78.18,27.47,76.27,41.65,52.41,48.02,15.46,26.56,52.73,61.99,124.99,93.56,39.56,14.27,54.07,40.65,998.13,39.59,33.0,78.93,28.24,41.71,76.33,26.6,104.28,15.59,56.43,36.69,37.51,85.94,70.94,63.83,54.82,81.405,30.03,128.18,75.99,161.84,56.89,117.69,27.05,117.75,192.05,66.35,36.29,145.87,47.92,287.68,9.22,38.77,43.3,40.04,161.1,52.9,105.76,127.99,35.725,73.83,32.64,74.05,77.11,37.765,45.03,20.57,26.72,176.45,70.93,105.58,87.95,87.63,95.63,75.07,36.45,41.01,149.04,65.55,114.32,85.43,32.16,64.71,44.79,59.84,88.88,24.87,67.61,24.74,31.16,33.11,49.71,139.68,50.75,62.13,74.76,54.67,47.2134,90.68,53.59,71.7,70.98,82.99,65.49,28.3,28.49,65.02,39.24,26.6,19.0875,30.24,23.33,75.88,119.99,71.48,29.79,76.085,88.93,56.51,35.7,102.76,45.6325,75.42,45.181000000000004,80.59,33.73,51.36,83.71,64.94,49.68,72.22,62.08,46.05,102.74,54.86,63.38,40.24,40.24,134.07,40.49,35.05,72.9,18.23,28.12,59.36,157.21,97.3,27.58,30.6,45.62,85.51,43.53,40.56,27.4,71.67,83.37,26.98,31.53
2013-10-15,50.88,20.5,82.5,71.2399,46.08,62.81,33.71,71.6,51.93,46.73,36.82,72.32,223.89,40.89,35.09,43.48,13.54,64.86,64.33,140.54,50.02,28.65,57.4,45.37,51.31,64.24,43.01,31.35,52.41,108.24,17.82,4.02,44.93,187.73,111.44,93.67,74.73,306.4,45.33,84.41,87.97,72.63,22.755,88.73,95.83,108.1,38.725,63.19,25.14,17.76,128.5,43.74,42.83,40.47,75.25,97.25,420.23,118.18,14.24,66.28,33.53,40.62,101.06,51.11,34.875,236.47,30.85,282.27,22.39,114.63,12.08,50.92,106.98,48.86,29.49,30.77,54.58,85.75,93.79,22.42,47.25,56.68,72.01,31.96,14.1,77.625,55.22,41.032,30.335,26.5,58.77,137.44,78.15,48.67,61.23,83.8,40.57,23.195,75.17,433.61,132.52,26.76,32.71,24.04,71.59,36.37,68.06,127.86,71.89,115.36,40.87,50.72,23.18,26.1,51.64,32.53,42.955,57.14,59.06,118.15,111.41,61.8,24.02,82.36,51.85,56.75,57.9,17.69,66.44,79.12,72.79,48.14,54.39,58.48,89.49,43.78,15.94,51.01,65.71,67.85,57.18,60.97,23.97,53.97,99.62,55.31,60.14,46.8,70.5,79.33,64.77,89.985,164.02,53.62,88.94,63.42,155.64,16.88,66.94,63.67,37.515,29.52,43.16,47.89,47.06,16.97,47.93,49.5,38.51,34.04,120.08,37.27,87.55,45.63,50.97,18.13,32.83,28.59,72.75,62.41,71.75,104.02,57.85,86.85,24.19,20.14,63.6,47.91,14.27,34.7,441.44599999999997,78.92,27.675,36.79,47.22,157.63,22.34,255.42,51.16,45.99,8.41,15.1275,45.9,63.22,41.19,75.18,80.81,33.0,71.19,65.23,22.08,85.14,74.58,27.64,21.305,58.97,54.225,17.66,93.23,94.82,184.66,52.59,80.22,80.23,37.19,23.39,66.76,44.58,16.86,64.62,25.39,130.0699,58.47,75.76,32.42,72.75,36.7434,57.63,89.93,20.07,52.31,56.94,59.99,11.86,20.29,61.95,96.55,35.05,47.5,37.66,73.05,20.505,51.44,111.44,48.06,56.55,29.18,32.6863,99.46,31.83,93.71,48.81,125.9,43.77,24.85,48.45,52.62,28.02,15.2,75.19,42.48,68.639,62.42,55.88,42.29,19.83,41.55,93.8,39.56,137.95,70.6,30.56,54.58,48.34,20.56,125.86,65.87,96.06,43.85,119.82,18.52,35.33,104.91,45.37,34.22,46.57,34.71,27.99,34.49,60.49,113.73,239.67,16.92,39.19,68.31,30.16,33.33,80.21,26.1,45.9557,29.2,30.37,36.855,36.85,97.35,79.95,27.56,78.74,40.7,54.48,49.48,15.41,27.34,54.18,64.96,129.08,95.23,40.72,14.695,55.96,40.12,1021.51,39.82,33.28,80.6,29.16,43.91,77.6,26.62,105.64,15.54,57.88,36.49,39.01,85.5,72.51,64.74,54.78,82.74,29.57,130.63,79.74,167.32,59.5,119.13,27.83,121.1,199.72,68.17,36.72,148.15,49.82,290.43,9.57,39.56,42.61,42.07,158.73,55.17,106.35,129.72,36.245,78.92,32.99,75.68,79.94,38.355,45.04,23.03,27.16,180.08,72.63,105.97,90.54,92.33,98.25,77.89,37.41,40.85,153.93,67.21,116.75,85.66,33.21,67.03,46.98,62.3,89.51,24.85,70.14,24.96,31.86,33.71,51.27,139.74,51.21,62.93,75.44,55.63,48.4867,91.84,53.63,73.87,74.21,84.48,64.98,29.25,29.75,67.47,40.25,26.67,20.14,29.65,23.97,77.03,117.85,73.87,31.11,78.155,90.28,57.38,36.88,105.8,47.8425,77.04,46.6833,82.55,36.49,51.58,86.41,66.97,51.64,73.35,63.3,46.32,103.11,56.3,68.32,40.52,41.54,132.05,41.43,35.53,74.37,18.52,28.78,61.6,167.2,101.87,27.69,31.08,46.37,86.79,44.29,42.24,27.92,65.8,86.38,28.45,32.07
2013-10-22,51.02,21.95,98.72,74.2667,49.0,63.76,37.02,73.95,53.17,47.64,39.49,75.45,232.33,40.0,35.96,45.24,14.3,63.79,66.06,146.89,52.29,29.29,59.24,47.62,53.39,67.19,56.67,33.275,53.77,107.72,18.070999999999998,3.18,46.87,200.05,116.21,99.76,80.13,332.54,49.52,87.57,88.43,76.36,25.695,89.7,95.36,111.73,40.995,66.33,28.08,17.6,134.25,46.87,44.09,42.31,80.87,103.42,435.6,122.48,14.52,65.3,34.69,43.08,105.44,54.16,36.6,250.6,31.59,306.22,23.29,117.49,12.29,53.275,109.37,50.76,30.36,31.82,54.92,89.17,97.8,23.52,50.27,59.81,74.87,34.18,14.565,80.421,58.19,43.163999999999994,31.915,28.19,60.72,136.71,76.47,50.33,63.47,87.39,42.59,23.68,77.73,520.0,138.18,27.62,32.96,24.71,71.0,35.87,70.71,128.4,73.26,117.81,42.69,54.28,22.65,26.09,53.39,33.42,43.295,56.66,61.38,120.64,113.13,64.35,25.49,84.54,51.8,59.37,58.4,19.23,69.0,85.01,78.27,49.15,56.22,59.47,90.41,45.37,16.82,51.95,67.42,71.09,56.78,65.52,25.23,51.83,104.26,57.86,61.66,48.97,71.93,82.55,66.4,92.575,167.0,55.47,88.74,64.38,160.31,17.44,69.02,67.53,39.06,28.69,44.54,48.91,47.96,17.6,49.9,52.675,40.73,36.36,129.69,38.4,90.65,47.94,53.115,19.34,33.79,29.03,77.05,64.26,74.51,106.06,57.77,88.16,26.02,21.11,68.09,49.65,15.35,35.41,504.0035,78.2,29.595,36.83,49.33,159.25,22.04,265.39,51.78,49.99,8.9,15.7,47.0,65.11,42.52,74.86,83.56,33.71,72.22,64.71,22.52,86.16,76.89,29.4,21.74,61.08,55.65,18.55,97.02,92.82,174.97,51.615,82.53,90.05,38.51,24.070999999999998,69.47,44.54,15.67,68.29,26.83,122.7662,61.09,78.04,32.5,74.9,37.9372,60.58,92.36,20.36,53.62,59.03,61.89,12.64,21.03,64.82,102.97,36.21,48.39,39.09,78.7,21.355,54.05,120.77,49.2,61.09,29.67,35.4608,100.88,33.22,95.0,50.15,130.05,44.91,25.965,48.19,54.07,29.48,16.36,78.76,44.6,71.868,66.52,59.24,43.89,20.5,43.0,95.12,40.52,142.13,73.05,33.260999999999996,56.73,49.16,20.57,127.64,68.51,99.75,46.04,123.8,19.1933,36.41,107.48,46.55,36.25,46.47,35.33,29.46,34.58,60.43,113.21,246.18,16.76,38.995,73.28,31.99,33.58,85.01,28.46,46.0748,31.68,32.22,37.98,38.83,101.46,81.4,28.89,80.6,40.71,55.96,51.42,15.77,29.08,55.77,67.84,133.77,97.82,42.72,14.44,58.41,41.97,1075.63,41.42,34.28,83.44,30.68,46.6,80.38,26.76,114.31,16.53,61.59,37.71,40.68,87.78,75.56,64.68,57.55,90.06,30.57,131.02,81.72,171.43,64.88,122.95,29.28,125.81,208.51,68.92,39.77,154.62,52.26,304.49,9.68,40.72,42.91,43.78,166.53,56.91,110.26,133.64,37.355,75.1,33.7,76.21,86.74,40.45,47.2,23.35,28.4,186.38,76.23,108.73,94.46,95.02,101.9,80.54,38.4,42.28,159.75,70.65,120.97,90.76,34.59,67.54,49.14,64.42,77.36,25.3,73.53,25.21,32.63,35.23,54.16,139.46,53.88,65.12,79.05,58.59,50.08,95.82,50.1,75.5,77.28,86.71,68.54,28.89,30.65,69.73,40.28,28.41,20.8075,31.18,25.26,80.06,126.11,68.86,31.69,77.365,93.77,64.69,38.07,106.13,49.995,77.3,50.3429,84.65,40.45,54.14,89.7,68.35,53.27,77.62,65.84,51.14,99.83,58.69,72.23,42.34,42.94,146.19,43.01,36.97,76.32,19.14,30.33,65.36,169.99,106.38,29.07,32.14,46.471000000000004,87.98,45.55,43.84,28.21,67.07,88.72,27.87,32.51
2013-10-29,51.7,22.37,100.3,73.8111,49.79,65.8,37.28,74.91,54.86,49.17,40.73,76.35,236.09,40.3,36.58,47.27,14.3,60.75,67.0,154.27,52.25,28.65,58.47,47.5,46.57,66.84,57.24,35.275,53.36,124.08,18.005,3.33,47.82,202.33,118.26899999999999,99.39,80.29,362.7,47.3,87.91,84.54,79.71,25.365,90.85,97.76,107.47,40.47,66.85,28.62,16.59,127.07,45.8,47.29,42.74,83.66,103.39,429.83,129.66,14.15,66.62,34.56,42.92,106.5,54.68,37.275,254.39,32.13,309.26,24.43,117.41,11.79,52.45,107.96,50.22,31.76,32.24,56.15,84.07,96.39,24.4,49.91,59.42,76.54,34.97,12.87,77.655,56.17,43.244,32.47,28.32,60.91,137.23,74.3,50.63,65.94,90.51,43.42,23.855,75.01,527.93,127.9,27.96,29.315,24.8,70.93,36.61,70.19,131.16,74.34,118.75,43.26,53.7,22.825,26.66,53.98,33.81,44.685,57.21,62.55,121.5,112.92,64.7,26.35,82.65,52.54,59.34,59.34,19.97,68.92,85.4,78.87,48.43,58.03,59.15,92.07,47.71,16.69,52.6,69.79,72.62,56.49,64.53,24.13,53.34,107.48,58.46,65.09,49.11,72.81,78.44,67.39,92.54,168.39,53.85,87.42,61.88,162.24,17.35,71.31,66.06,34.93,28.05,46.641000000000005,50.68,47.32,17.61,50.88,49.395,43.48,37.68,133.14,38.0,84.16,49.27,53.32,19.21,35.1,28.59,76.88,70.73,73.25,106.01,51.51,87.88,26.21,21.28,69.5,51.06,17.51,36.06,518.6381,79.49,30.01,37.64,48.07,162.11,20.76,273.04,53.25,53.38,8.99,16.015,47.34,65.29,42.15,77.5,83.5,34.06,72.0,64.85,22.35,87.46,78.66,28.87,22.055,62.76,56.49,18.63,100.9,91.65,182.12,54.15,83.5,94.37,40.64,24.523000000000003,71.48,44.5,16.62,68.03,26.55,125.8899,60.89,79.24,33.36,74.7,38.1675,61.15,93.14,19.0,52.73,60.46,64.28,12.66,21.47,66.19,108.17,35.78,47.49,39.8,77.38,21.65,57.04,123.63,49.14,61.96,30.35,36.6471,101.53,33.22,97.98,50.2,133.66,45.47,26.28,50.61,54.94,28.82,17.16,75.56,46.13,73.244,66.75,58.56,44.61,21.47,44.91,96.05,40.295,155.87,71.99,33.9,58.5,49.2,20.22,134.08,69.97,99.39,46.36,125.28,19.51,37.43,106.62,46.93,35.41,45.58,35.99,29.36,35.52,62.73,112.69,249.29,17.495,38.65,77.13,32.23,36.01,85.98,27.65,46.7571,31.41,31.95,37.955,39.5,108.31,81.8,29.18,87.99,39.765,57.18,51.55,15.23,29.91,57.38,68.88,124.06,96.48,43.27,14.67,56.63,42.09,1069.52,42.3,33.83,85.49,31.25,47.92,82.46,26.25,116.85,18.21,61.74,38.71,40.44,90.36,75.2,67.64,58.24,92.755,30.91,130.6,82.66,169.62,64.14,123.23,29.56,124.66,213.67,68.93,43.06,153.48,52.63,298.532,9.5,39.35,44.07,46.95,165.61,50.69,110.91,128.15,38.38,74.64,33.84,81.87,88.62,39.81,47.18,23.1,28.52,194.44,75.49,112.9,94.0,95.35,102.59,80.78,36.38,42.39,156.68,71.7,116.18,92.1,34.02,70.26,48.25,65.64,79.87,24.605,74.53,22.13,32.84,36.27,55.3,147.18,52.99,64.32,79.79,60.04,49.0267,98.42,50.76,82.26,78.06,87.28,72.25,28.54,30.08,70.07,41.76,29.12,20.2675,33.91,25.12,79.45,128.29,68.08,31.85,75.285,98.31,65.87,37.83,106.42,51.06,73.49,51.4286,84.71,40.21,54.46,90.21,68.74,54.0,76.09,66.11,51.09,102.15,59.76,72.74,42.69,42.96,148.93,43.25,37.29,77.06,19.24,30.95,67.28,168.8,108.15,29.14,31.55,45.4,88.93,45.71,39.24,32.53,67.06,88.4,28.44,32.03
2013-11-05,51.21,22.68,99.26,75.0641,48.17,66.87,37.36,73.36,54.79,49.79,41.98,75.51,240.03,41.71,36.19,46.57,13.96,62.67,64.45,156.53,48.29,27.54,58.7,47.07,45.21,66.69,56.65,36.21,52.99,119.54,17.765,3.33,47.91,193.2,115.14,101.27,78.6,358.892,47.92,87.49,87.41,78.69,26.28,89.13,92.86,109.12,39.9,65.27,29.34,16.53,124.0,45.03,46.95,43.26,81.9,98.98,442.06,133.57,13.93,65.13,33.66,44.06,107.01,52.42,36.77,244.06,32.35,301.85,24.79,114.36,12.0,51.465,102.15,48.38,31.65,32.56,60.56,84.05,96.61,22.87,50.1,59.9,76.14,35.39,13.07,75.37,55.9,41.9,32.655,28.14,60.93,131.06,79.51,49.67,65.36,90.16,43.76,23.92,73.66,543.05,131.72,27.45,28.685,24.26,69.96,34.92,70.66,128.49,72.57,120.13,42.34,55.69,23.065,26.46,54.13,33.38,44.795,57.37,63.22,118.45,111.26,64.57,27.46,81.8,51.92,58.11,62.65,18.41,68.85,86.9,80.69,48.86,47.91,58.5,91.33,47.28,16.39,52.96,69.76,72.45,56.53,63.79,25.56,51.08,105.32,58.35,64.33,49.26,70.75,77.73,66.85,89.865,161.27,52.56,84.48,63.46,160.25,17.250999999999998,70.06,64.01,31.175,28.25,43.41,59.58,45.3,17.09,49.15,50.105,42.09,37.19,136.23,37.14,79.74,48.48,52.345,19.14,34.83,28.58,76.21,70.3,72.84,107.08,50.07,87.1,26.42,20.87,69.54,50.7,16.5,37.09,511.2708,80.21,29.905,37.54,47.99,161.95,21.07,268.96,53.13,52.09,8.75,16.8875,46.45,62.85,40.79,76.65,80.49,33.69,72.25,64.47,22.22,86.34,77.78,29.62,21.76,62.17,55.29,18.86,99.51,93.95,177.85,54.34,84.22,95.44,40.0,24.03,71.76,43.57,16.74,67.52,26.03,124.9599,58.45,79.15,32.91,75.05,38.5131,61.58,92.81,18.56,51.95,60.34,63.09,12.56,21.36,63.97,108.81,35.11,48.74,39.5,79.13,21.325,57.73,124.6,48.12,62.89,29.59,33.6372,102.41,32.02,101.05,50.37,135.47,46.66,25.995,50.18,54.15,29.11,17.87,74.3,46.14,73.638,64.26,58.85,45.85,20.78,45.04,97.41,42.66,158.92,72.11,33.44,57.1,48.07,19.15,135.8,69.11,100.18,45.65,126.12,19.1733,37.54,103.22,46.05,35.36,45.36,35.67,28.99,36.64,62.68,111.43,246.61,17.67,39.88,75.01,31.86,35.32,87.26,27.35,48.7857,30.8,31.58,38.6,39.48,109.12,80.32,28.3,86.43,38.51,57.14,53.52,14.8,29.66,56.06,70.28,124.26,96.69,41.91,14.23,57.25,42.01,1082.23,42.79,33.64,84.62,31.24,47.47,81.43,26.24,115.94,17.53,60.61,37.29,39.91,90.13,73.29,68.16,55.63,91.66,30.4,142.5,81.47,165.23,64.27,124.84,30.27,125.01,210.36,69.005,42.84,152.39,50.57,302.32,9.54,38.49,42.93,45.51,171.19,50.4,108.79,124.76,38.79,74.93,34.13,84.49,90.96,40.995,47.33,23.29,31.11,184.56,77.03,110.69,92.39,93.74,104.91,80.12,35.86,41.1,155.21,71.03,116.18,90.48,33.85,70.8,48.47,66.07,78.54,25.81,74.05,22.68,33.31,35.53,54.01,147.72,51.76,64.63,80.19,61.29,48.5667,97.09,51.77,88.07,76.96,86.46,70.76,27.85,29.66,68.23,41.9,29.1,20.0475,35.52,24.24,80.24,131.5,68.72,32.58,76.605,100.3,66.1,37.67,107.68,49.3425,72.99,52.3214,84.15,41.44,56.44,90.53,67.8,54.3,65.382,63.99,50.1,99.47,60.3,71.19,42.11,42.63,147.85,43.7,35.01,77.42,17.27,29.5,66.99,165.2,103.87,28.72,30.63,45.02,91.99,47.14,41.12,33.75,70.23,88.94,28.69,31.69
2013-11-12,51.2,23.52,99.24,74.2871,47.48,68.29,37.47,76.3,56.24,49.85,40.42,75.72,244.15,43.61,35.97,47.37,14.86,63.07,65.25,161.66,48.19,26.4,59.72,47.45,45.11,67.24,58.5,37.405,53.38,115.72,17.64,3.44,48.71,200.76,112.71,102.87,77.96,349.53,52.21,83.92,87.5,80.57,26.6,89.71,89.93,107.97,40.685,63.09,26.76,17.11,121.28,45.13,47.41,42.67,81.03,103.25,451.55,132.33,14.32,65.9,33.04,43.77,108.92,52.71,36.925,235.62,32.56,297.21,24.67,114.21,11.91,50.21,100.65,49.52,32.13,32.33,63.0,83.85,96.41,22.03,50.18,58.73,74.31,35.67,12.77,74.705,56.47,43.656000000000006,32.48,25.55,58.92,128.46,81.1,50.12,64.72,91.04,44.64,23.49,78.57,535.42,130.1,26.91,28.45,24.9,69.51,33.51,70.35,127.85,72.82,122.45,41.61,56.71,23.73,26.78,53.51,31.43,45.825,60.95,63.96,120.0,107.23,65.65,28.12,82.12,50.92,58.47,63.32,18.91,67.77,84.41,78.01,50.35,46.38,59.29,91.88,47.94,15.59,51.92,68.29,71.72,58.43,59.83,26.44,52.83,106.43,56.83,65.07,48.23,70.68,79.07,66.3,83.55,155.18,51.29,84.52,64.66,156.84,17.63,71.9,63.01,31.82,28.17,42.61,62.02,42.73,16.72,47.0,46.605,40.58,35.9,134.63,36.69,84.13,48.71,52.815,19.56,35.93,29.04,77.48,70.19,72.57,104.82,48.93,86.73,27.05,20.61,67.61,50.46,16.73,36.66,506.3959,81.4,30.73,40.87,45.85,162.89,21.06,268.24,54.46,51.25,8.81,16.935,45.44,59.64,39.29,76.18,79.94,34.28,77.25,64.0,20.51,86.59,76.72,27.4,21.475,63.34,56.22,18.45,96.88,96.38,183.07,53.35,87.51,96.52,40.9,24.43,72.41,44.43,16.85,67.77,27.0,132.0132,61.33,78.83,33.21,73.74,38.0523,62.1,93.56,19.6,53.97,61.82,62.05,12.84,20.85,63.32,108.21,34.6,49.03,39.88,82.14,20.955,57.6,123.83,47.87,63.05,29.4,32.2647,105.42,31.08,101.24,50.06,137.23,48.74,26.215,50.12,52.37,28.17,18.03,75.33,46.33,73.768,61.45,56.68,46.43,20.46,44.51,97.66,43.5,157.89,72.83,32.43,57.89,49.31,19.26,136.76,69.19,99.41,46.25,128.36,18.6633,37.31,108.51,48.02,37.005,47.59,35.82,29.76,37.36,64.24,111.39,240.25,18.63,41.42,73.69,31.97,35.85,85.65,26.98,47.6757,29.59,30.96,38.435,40.0,109.35,82.55,27.06,86.65,40.2,57.7,53.78,15.715,29.47,57.04,69.99,124.04,95.64,42.2,14.51,56.81,40.49,1099.49,43.24,33.19,85.64,31.38,47.85,82.8,26.52,116.11,16.76,60.03,37.09,38.57,89.75,74.18,68.05,54.67,91.255,30.2,150.03,86.64,159.12,65.41,127.19,29.84,124.05,182.75,68.51,42.87,157.92,48.41,286.89,9.64,38.94,44.6,45.93,171.49,49.97,112.95,125.63,39.385,74.62,34.11,84.85,90.75,40.3075,46.17,23.71,30.9,184.5,76.92,107.41,91.99,90.89,104.35,75.89,36.236,41.39,149.8,71.17,116.39,88.83,35.14,69.9,47.81,67.04,81.82,25.56,73.23,23.05,33.15,35.17,53.85,147.74,51.91,65.44,81.73,61.62,49.0934,97.69,52.48,84.9,78.42,86.44,72.34,28.06,30.55,66.79,41.85,30.67,20.0175,36.79,23.64,80.76,129.53,69.95,32.75,78.33,99.82,65.19,37.75,107.45,49.5675,73.3,51.8643,82.12,41.02,55.84,87.88,62.85,54.73,60.18,60.73,50.16,99.52,59.48,72.13,40.86,42.28,142.77,43.79,34.57,78.71,17.48,29.15,66.07,167.38,101.26,28.37,30.89,44.57,92.67,48.0,42.76,33.94,71.49,89.25,28.89,31.84
